value
-3.6106599060270326
-2.3931417453722683
-4.000570846953322
-5.199557208825302
-2.7520686132964993
-7.613605310186899
-2.7637680042585453
-3.12925492463125
-6.454613836125995
-5.698622175804719
-1.8192890236594288
-0.46173297636101823
-4.126892428549613
-1.6295888061064974
-0.6232256272879212
1.0193772645063781
3.1368668379358167
0.19107346041439052
2.0879445311654563
3.56407305025666
10.718404589362647
0.5623102193477484
2.4974100383501114
1.376603419996618
0.9297268215152736
-2.2465599152528832
-0.4735470754293958
-2.3991932859414615
-3.618347493303148
-4.550795171046525
-3.7919806736233324
-6.44368872323279
-6.8419651515356215
-7.470105064221933
-6.856620266170467
-8.560749205684516
-8.808556216044153
-9.576256174635017
-10.076597140936252
-11.151766626572476
-11.31457341907202
-10.582954971307833
-12.102349535976735
-11.188193245541775
-9.26055654720013
-11.377267057212121
-4.882481916790475
0.7016289820876738
-8.902451711135072
-5.295781285812735
-6.160797587434932
-5.6410475439043966
-4.62419168511325
-8.171922351997107
-3.231417589608086
-6.379058516595022
-4.715381219752456
-3.5266835112010058
-3.4895306338365915
-2.236831620389203
-3.2399843437271745
-2.3996067214064225
-1.4814759143896392
-1.5393610597620464
-0.5942279882046154
0.4218088627541412
0.5249688130993486
2.129573122563564
1.3345512045293566
3.108943641063795
6.500184043603213
5.337547447208725
3.6679477863643757
1.0600333802376078
0.5991859072330741
0.7499710269577973
0.09383211451741362
-0.08131626805092675
-2.335385567755258
-2.5456678973315485
-3.4843197394715326
-3.861159066116914
-1.6408015567291532
-5.50662633024302
-6.961153337347373
-5.873983863828938
-4.767693549254715
-5.876729175602837
-8.219037425457088
-6.406226292708173
-6.927135367057485
-7.421645449974724
-6.496608999305741
-6.901738418606418
-7.490030623497498
-7.353323951514317
-6.601548992855973
-5.902824766088539
-5.993002357710593
-3.310023703389811
-4.232923562167688
-2.924636256379056
-3.718315791591611
-2.238938622383674
-2.103082839075865
-1.211095173948163
-0.0931376427383753
0.398067167685678
1.1466247601308084
2.2854209307220343
5.401976581590345
1.8326484213528196
0.6187548526108557
-0.4159887685004918
-1.3079747533483674
-2.3938359999237933
-1.1890028775151296
-2.875576166383753
-4.023827649670207
-3.786291408100931
-5.534572092029165
-6.141550212597905
-7.241777133618346
-8.187948539457693
-6.457755948174166
-6.785740592907222
-4.642010195195821
-8.130598885676733
-2.7705303610783756
-7.101932537323739
-7.213547495667974
-6.726849292774499
-5.908444298872764
-4.749331857431129
-4.640244256206264
-4.7329682063061815
-3.416431583523478
-4.2996319278310215
-3.384261427779619
-2.254505326069016
-1.5960092589122579
-0.8281656150966629
-0.3939781551399529
-0.9318740381674214
1.2774251796767329
1.4558778636139278
2.3497401622334
3.861207691106375
5.006069619346895
7.035754420548379
4.242397764786806
4.007825425148901
2.2289323923760165
1.7982475304091525
2.034733772927712
-0.017157803101431238
-0.5872081329388409
-1.124148601422627
-1.0468460658849936
-2.049531624145998
-2.4619698574232682
-4.034234399682248
-5.3530787174837995
-5.104010962780459
-4.413886551778441
-5.740401522172193
-4.690409518103071
-5.735675242105926
-5.999397943070255
-4.145472005776878
-2.004401831459713
-5.000401768437002
-7.026508606035625
-5.9632111719532395
-6.14296410884806
-5.561312373142926
-4.154716118834465
-4.303694902609525
-2.97091192605395
-3.649180332915462
-3.1000742157988803
-2.6749779117835923
-3.0745458784158526
-1.79298423700231
-0.7012333578621956
0.24359819099295557
-0.4699937779753059
0.19637463466502225
1.1119937437226868
2.1815113601462044
3.039794499789437
3.8784859045723885
4.504197292502926
5.290677979083399
9.18853257173521
6.353899607212132
5.63075404963903
3.2696174825751907
3.5369018155290872
2.2961016089141637
1.5555928113890587
1.2440998990731313
-0.3263380077610114
-0.7044635860416568
-1.253910902696482
-2.8554425019426897
-2.067472154192935
-2.3143191780514467
-2.853450154303963
-1.6935900837743916
-3.579347813717866
-4.957644187634997
-5.963216820659068
-5.17027682075469
-5.955537300028704
-6.222743882694586
-7.338526857787217
-6.561732386244451
-7.369511762733679
-5.85930566059869
-8.276961177935455
-5.8491471191743765
-6.017010326731571
-6.239422428826298
-5.183948314058519
-3.65003188955099
-2.7921447902826753
-4.280453507682833
-2.685115948451005
-4.277021795199994
-0.4851184310417592
-2.432946312907014
-1.6555995250137983
-1.3173659053639257
0.03240450554539007
0.6207656862041542
2.126514037407442
1.8324562155297284
4.350555802340477
2.445407083896203
3.3610466834660424
4.993433325435024
5.289599675518381
5.912357241023979
10.174968805385035
5.88623434575095
4.747659361724268
4.704332957104513
2.874924376660533
3.106873135504778
2.2245936654699507
1.4278751772246938
0.8773455229224446
-0.18105604527157076
0.5627367065670292
-0.10638448170154591
-0.8397048117289033
-0.676664967311434
-3.2249222295506956
-2.598585933313945
-4.486278246745975
-3.4634870058226666
-4.944746810126055
-5.68725833061997
-6.474333681169618
-7.234780257913027
-6.309335829249095
-5.898383187839529
-7.636604131724754
-3.676583878872271
-6.602317240316188
-5.000800483560171
-5.715308713220238
-3.158656474907908
-4.525107322756506
-4.165562253468501
-1.2936947513163324
-1.9068022193185283
-2.553658311128755
-0.4020743816948383
-0.6472297872511709
-0.2940665224323138
-0.24609867608502495
1.2352479067439994
0.4077312059924945
2.7611932714534437
2.304515374067407
3.0277432517267955
3.2476385208447023
5.118958257505795
5.327215992110547
4.695701895595801
6.599021508577075
6.6967709489958755
8.660644271746014
9.71456988748761
9.616639445793906
10.532754838474348
8.619867097786802
8.09778458752838
7.143347325644761
6.878904052288081
6.195694949477104
5.766704545385445
4.8545874755202005
4.189967987710662
4.177776467823148
2.955599664506414
3.0467000629606042
1.5614889266055272
1.8217026746423082
0.7301326228157993
-0.052536441819640574
0.006435831692934253
-1.4377677692364985
-1.7300096219596641
-3.3073807116559344
-3.040045513058644
-4.191334640098697
-4.076563916257311
-5.0615910356238
-4.961363790803021
-5.925945992552192
-6.815343471226421
-5.648867669551469
-7.041427359517803
-5.008409736956963
-1.6274664683080757
-4.659730433335113
-3.856386621548744
-3.842400182344465
-4.991994474921385
-2.5065847130584817
-2.5072925402974944
-2.744012124764788
-0.02306411214061072
-1.681767268494682
-0.9876478850446351
-0.3555397974603292
-0.30254839060249766
0.641659588331385
2.793171747388278
1.9362080978197804
1.9541774146767068
2.952024328666389
3.5745489738430405
4.326618241339362
6.070132839581566
5.819358767737641
6.687247890519639
5.853207180596878
7.63652986012793
7.577656200923267
9.183347788082305
10.23008975461864
9.913726204569882
13.55103162351097
10.448182802652065
9.571999639117978
9.431195015347418
8.207620966718753
7.835602852829492
6.469420566134958
6.322362394504847
5.332163148143641
4.3862650808863695
4.658893163815116
3.7384483624487874
2.753557529378731
2.7608215920862467
2.4553588047163255
0.45726366997340856
0.28121644751555314
0.34689665986866686
0.7341515888638884
-1.9551203451112216
-2.328051538326387
-2.781496672405861
-2.5931600016032785
-2.7492675736670726
-4.213229790675323
-4.41037583917605
-5.649409143789024
-5.094165882984623
-4.130407657856199
-3.8163830011770816
-5.687428809394902
-4.068545586303858
-3.32997731559596
-2.9675726257520414
-2.1292642194698645
-2.9857142595856656
-3.6325033744968738
-2.386822909688247
-2.7163998952888786
-1.4043194800252679
0.4204011488185355
-0.0834556819556752
1.0077989921136656
0.30639346971470083
0.6137921594096344
1.6704141620463417
1.5635206924461482
2.985531284121381
3.32525242671179
5.150113311266572
4.091359194286241
5.496050343788379
6.446415183131294
6.620321964049442
6.916622785020263
8.172811381027348
8.806001738101918
9.47606889907789
10.907166026557395
12.09767125429409
13.863084652708038
11.87834447508295
10.293860302245783
9.653048185109927
9.965351462345081
8.102390652855384
7.311877742052534
6.599048196310957
6.5992447425016
6.376677865663026
4.8153187788598295
4.310544576147696
3.866910750828635
3.171762383922236
1.963492421649791
0.7592059866230749
2.1940451340039826
0.6113563419087401
-0.08117187803221462
-1.0334725719287439
-1.0542017224486266
-2.3883740395101425
-3.05522999821415
-4.12326381932579
-3.088361754818639
-6.070828786706897
-4.073762301854067
-6.281323405225835
-6.024580531528728
-5.1379714187207535
-6.134717827449232
-7.033505480239634
-6.4608838166115286
-3.4735519614307777
-5.49805745525027
-3.2286323959675385
-4.706196347137409
-2.1685519017173935
-1.7423313040834865
-3.0869061324253435
-4.798747128572474
-2.5134005193004363
-1.7501954301538587
-2.7807512702090076
0.04626892645452733
-0.39912865334054615
-0.9992497305871296
0.24044365142687676
0.8868331297447475
0.8567012097434769
2.797373689182365
1.4808672798626512
4.001854053648792
4.786231317401711
4.580696306859002
6.326242616345459
6.742378073573593
6.83311300347881
6.762402190233673
7.526005847178365
8.30529604799382
10.093506122306831
10.165346108987897
12.946271443106049
12.037663027378539
11.223295081954745
10.302182487033518
8.485747962818873
8.066300911469797
7.2497219616181985
5.868497257983868
5.986368313930261
4.879841358893594
4.843774178619655
3.0357656705675566
3.0035193103289477
2.5477604239530507
1.113281295491415
1.435659333115106
1.1052241314585007
0.820319148342369
-1.1369657442714234
-1.7247684039531617
-1.6304904371297622
-3.602867004884818
-2.578415711877016
-3.913248771478465
-3.629954876242977
-4.896346362724956
-4.058448943044681
-4.174722864845024
-4.6111250108988875
-4.9182541311416434
-5.689936939860997
-5.12119407535489
-3.9844756201511906
-2.7947993970274916
-3.200989013741767
-3.494420076911108
-3.827355389311858
-1.5968249765749851
-1.6433292566886586
-1.1885496011461105
-0.3510326843771975
0.3381078349640545
0.6340733158347299
2.189562825546567
1.5272562807910441
1.8230554419591558
3.8607845502264957
3.0616128202870327
4.210977839908884
4.502548633396248
6.085433719843665
6.213858826425527
7.471844691439698
8.331272252743744
9.843440112940577
10.452331354622034
10.752689519844612
12.263854027121415
11.965091854276757
9.882986384927102
9.221538364980178
8.547968181825714
8.033678674919171
7.795881747116556
6.100545476021469
5.844328000557214
4.577097309527784
4.350940573592105
3.946590005598957
3.049057890218805
2.5583716542962405
1.4528132416535857
1.2653493111732097
1.0780094371314517
-0.8362286488068956
-1.1696807822791702
-1.525495598705976
-2.375219359886974
-3.068427412548175
-3.347708611281733
-2.934918955787446
-4.802363078517541
-4.965310475065486
-4.877120838248143
-5.431912293166023
-7.0996615719608265
-4.014461627750262
-6.243841941809386
-5.151887655859374
-4.812822411672714
-3.1239955912341593
-3.4459455797810548
-2.9621139370684553
-2.0660779859884597
-0.20274747265151624
-0.8122718143255518
1.2896366012733895
1.3640149250900628
1.7520709185590793
1.8907775561711369
3.6971914502392536
4.6065923027216025
4.782513590289237
6.790655054532523
7.508910909180969
7.7767576830912155
7.695149903341698
9.449300035360965
10.1398612453363
11.640682493075126
12.563886483314361
15.766220404340652
12.77516208807059
10.868484373621408
10.774330030075635
9.344457738249146
8.884432457748206
8.203631468878239
7.173515606821201
6.415721133733552
6.247404982030189
5.17046103261546
4.279758935865254
3.7431938977219215
2.225807363711786
2.9292340818613156
2.185569321487039
1.5483104865107478
0.28045164199889583
-0.8069259348782141
-0.8407692622835858
-1.026028711238991
-4.284499341727883
-4.357472287208939
-3.5524474946046727
-5.050532729419902
-6.6897825957886115
-6.034237653436642
-4.6032633238294025
-4.251006352281382
-3.4557863061565217
-3.449371101113034
-2.834752726928578
-0.7922387957246795
0.78550653024214
0.6583341750738483
0.7478272230951052
1.4351331428674976
1.3945907701959246
2.977533143210884
4.241449512249285
