value
13.587367044972886
13.073011327074115
13.100318370879764
12.004653917990577
10.718251261804314
9.806974593016136
6.694742101315509
7.407343049605634
5.915776368491278
5.76160176482978
5.17859503968053
4.223846494419736
3.4858075510319746
4.508360925269145
1.1664736858750002
1.721852054820522
-0.5440465421846374
-1.1421762917888705
-1.2285940853924837
-2.5145796114132124
-3.1206511038512
-5.8437665925793025
-6.633837594671471
-6.210809354127758
-4.525812436532189
-3.887036870916249
-4.635517892168738
-2.4800743470229767
-2.838385972241389
-1.7455726837958445
-1.2028818989347538
-0.9587318051903356
2.25831200756878
1.212740948896736
1.9992919980026906
2.290076799248137
4.034551776022102
4.488740631896537
6.623766809625533
6.573362134753395
7.74822803955984
7.6172958343208155
9.365438714216534
8.614517280884137
10.847813413245662
12.245541419330548
12.449580186541736
13.009024692660308
13.88873139203321
15.365035411473684
14.53125336173733
14.048267464200714
13.33355054194378
13.065488447663887
11.157719763508515
10.269155216673926
10.044674657138367
8.864861565411761
8.181044300448173
7.481984154121663
7.258759613935732
5.408186552006771
4.466912814777328
3.4128070683658867
3.590263540095467
2.3269623175642034
0.8494137079282901
1.0537341342816122
1.1213424472278068
-1.7815163647109287
-1.2279096316029305
-1.6378293666200887
-4.1136961172800985
-3.6618312433668425
-5.3654760582327325
-5.129793981998902
-6.210858357285109
-7.245375127391748
-6.981116329244693
-9.498929809774097
-8.985732863479255
-9.244979985708252
-10.377495706612851
-9.085608690221832
-8.879664484446364
-10.398443193596208
-8.911095172521415
-9.83688611236576
-8.559153067214556
-6.821768005934815
-8.386636455229779
-5.65661943935765
-3.8325709271822217
-4.661992505544379
-4.083808114203681
-2.8274286224799585
-0.8776836658838368
-0.3936978412488872
-0.23206111816219954
0.8815885433695549
2.0488092756630665
2.488753228632129
3.654027774014306
6.3841149694107004
6.242494431916036
7.282595934064997
7.807678846164492
9.381683747877613
10.505617765846301
7.9237804881517055
6.37043585010856
5.922905874100628
4.086574881382536
4.3231429597160655
2.910443262676708
1.9001275079220221
1.0253269777538694
-0.6549015793294332
-1.74604032744308
-2.7289266962691454
-3.711693793051252
-4.5448882203846175
-5.497826177420372
-6.555986659005148
-7.386289299346871
-7.338587287297908
-8.990229462641588
-10.281899260138289
-10.134958154173678
-10.462621369767628
-3.9770310555846344
-8.205476245646155
-7.786813148775038
-7.326741535690441
-4.441689268082039
-5.3394665471255
-4.647875294526376
-2.5336726955672173
-3.2444022041361267
-3.6244804125467884
-2.97328405249809
-2.1679610088993777
0.3343859360996173
1.1800740552441722
1.6317827045232949
2.5087936990143356
2.026653243596667
4.067233127270466
4.77026098466313
4.573494924812682
5.553036850577918
7.106939574839624
7.918038222863763
8.576148918608727
9.666142959799394
8.572806771141233
8.289347411657541
7.581625721612059
6.2826294294938645
5.738568043803215
6.61759218679109
4.307549010007754
3.2530928309512195
4.06616146884106
1.8338078622225458
1.5001275405926022
2.3584424303529663
1.1433708413563402
-0.4130002647508808
-0.3750362409809933
-2.3540393094075993
-3.887802653524437
-4.033723810263286
-3.5186992019270895
-3.9921988274430054
-6.182317579046161
-5.106491058232886
-5.917647292916755
-7.954746221050868
-9.240004839842209
-9.025025065528197
-8.366353698915066
-2.8643881193871175
-7.606654270732755
-6.119114772277654
-5.959867340251963
-5.4448774165671265
-5.17483231305774
-4.656679255721369
-4.41202769902658
-3.0119122140167907
-3.42045435431476
-2.004318538539417
-1.947606745497893
-0.1820228740014527
1.616118913849126
-0.1396364289475337
1.2621374765890587
1.9298228856940431
2.0791620283310395
3.202914402082675
5.009785801727021
5.1720628592553215
6.925509383533608
7.3369448442336145
7.824079941095797
9.033398515392422
10.132380426887666
10.588594785706503
11.771426249085472
13.264266969430999
10.937967077514925
9.349024058179676
10.24606622307845
9.794130934483695
7.837232068271322
7.72477045178242
6.318607947801651
6.071141319773329
4.94167691847362
4.442939231390484
3.443434057546169
2.9097196867740003
2.356954304366891
1.6253427586588074
-0.387426049068312
-0.8446348457862376
-1.8935962401406803
-2.5115062881841044
-3.5299399952942365
-3.975228631689186
-6.868047622831065
-5.582020461577759
-7.525160845929644
-9.477395898763849
-6.540820144038347
-8.557455016904727
-4.991233376366799
-6.222142949002302
-4.22848374802354
-3.958984741671667
-3.4201939909532943
-2.5167696205355057
-0.128453726242156
-0.03667804249127736
1.7910498145461131
2.965149802884615
2.7257847440861447
4.586729071477012
5.848041852042222
5.694855102877987
8.080320387333352
8.859172813974167
7.5544172387663435
7.2421069075325235
6.203272802999683
4.700063957645879
4.3423786629511065
3.476504260418815
2.5479247598560484
1.3913962164462135
-0.540749852873759
-1.0076694109545423
-1.748300734732367
-3.1851160488533394
-2.1855001472411355
-1.8624978686297557
-5.186586042535123
-6.348071415872593
-7.042330245112907
-9.5516237902731
-9.150976759798244
-9.771297678112823
-9.464695563070983
-9.76913031044861
-2.890523539888048
-5.154851127427982
-6.823055199765557
-4.051106486549119
-5.347749593379932
-5.5224000375006055
-3.6720550596314787
-3.2384404934868387
-4.215827676801675
-2.7605460990342516
-1.7294295225402374
-0.06690492229981515
-0.8673436206492462
1.0505400226646164
0.47538194778627035
1.7577354413619204
3.2438585222195297
3.168266600334397
4.95934578453943
5.990718657916923
6.387564296704462
9.466304183540611
8.069158359798571
7.239249052236278
5.74943937418379
4.944231827221775
3.6500178304547206
3.7630622309696964
2.687977842664418
1.697232209831707
2.613176042729943
0.22618699296815503
-0.4775225651323194
0.991519914021345
-1.7481944441113506
-2.414850503992648
-3.360303093328939
-3.0141329173685985
-4.626623795984873
-4.8707332037228195
-5.698571276934905
-6.489048001056525
-8.434239313145811
-9.0951241978566
-8.936005619704417
-9.22763235441134
-5.870999852612913
-4.092466189076905
-5.846408391793533
-6.588444406110523
-5.131416743364104
-3.401959769646938
-3.7625556097302977
-4.228130053561517
-1.6905082156125815
-3.3705818120961477
-1.4510481775716102
-1.1105229329178556
-0.8616360355881573
0.5748390923713909
1.7605557288236091
1.819570943191869
2.6474770372084793
4.548723340067783
3.9092216025373276
7.299880838662499
7.6934975012985545
6.9112229739242945
8.95222772729502
9.935227998831946
10.516549755126682
8.75245614117622
7.064681574874904
6.8933831758276325
5.589142170662849
6.1030223512500825
3.8384749951512083
2.777562537154933
1.3959599541883991
1.4223555531302707
0.563328630566276
-0.3211604989803283
-1.465756199045799
-1.5982919736968544
-3.094035921911722
-4.279097751105724
-3.300058947552764
-4.321119743916649
-6.65698616150799
-6.266131598684092
-8.329053893120063
-7.813739671363627
-8.566977103189634
-9.384098666808766
-9.783566723618925
-10.925961858521424
-11.428695972564885
-7.734360110494357
-8.380543453486135
-7.926826708200298
-9.21733604570441
-5.931634970253084
-5.292358998135153
-4.420082824344419
-6.0848360602074365
-5.177553036407404
-4.679731177426287
-2.738464133889776
-1.9076744324126105
-1.9297673263716701
-1.332658129606163
0.09270806418658509
0.44769263303661977
3.047430085776794
3.2870692586587764
3.5934255518809324
5.285530907475188
5.444824393229076
6.581618931437854
9.5692142186203
8.311328619787036
10.439508632095428
7.977978841645687
7.442138454577665
5.8284469000370995
5.439659049765107
3.3817055560469607
3.8807908269860927
2.5801545409286724
1.9738979353445387
0.8410317058352226
-0.5532301467885222
-1.2457813131707725
-1.3483110836757677
-2.829469318126827
-2.4919460955957415
-2.724722372725736
-4.66274208296825
-4.907830050976174
-6.990553296192103
-6.486883759892582
-8.685595216493942
-8.86024572868443
-10.072943777096095
-10.359542435096971
-7.981761753832542
-7.124773503287316
-7.708193097870094
-6.182009184787005
-3.7606516884796917
-6.008177132199181
-4.789132353096526
-4.217322240460397
-2.3509854114868736
-2.3527289636046684
-0.25606444901183
-0.2931009645052098
0.19099324959158787
1.781516225574254
2.0716379300666774
2.817974252669217
3.6395988418997383
4.462924602960165
5.979512879672623
6.552226383581619
7.369943507423245
9.216137477558554
10.037136001457512
10.253539271246195
11.655464626523564
8.871040907664083
7.991220403826166
7.852527432794884
6.447226975950247
5.95388657138834
4.63052722631079
4.085803928111694
2.578754305153499
2.0021227601834024
1.7412108477501962
1.723529826996033
1.2948298631265502
-0.5758457940053429
-1.3360718683354005
-1.6973018574586478
-2.985047840111883
-3.8470832470218244
-3.4291099660107047
-5.960503948051736
-5.860820731610771
-7.027754970464039
-8.070883628742846
-8.43673265607003
-8.823826626881917
-9.14881212833361
-9.491205166687214
-9.000290505426706
-11.931109704355462
-7.776690862985874
-5.769507643635929
-4.861151810853829
-4.076811601065246
-4.955924440270311
-3.388338806858416
-3.9387392784809006
-2.9447816108522487
-3.3893835912531847
-3.3014032901010224
-0.7881964770942785
-1.2623193912846131
0.1756517860491984
1.0423133549497918
2.8027947159350965
3.4906740811764387
3.5222453795253346
3.5072802447032774
5.416751368844685
6.531312633514509
5.8111890712303795
7.61731617895105
9.390259321600052
9.16103016310798
11.650081856812097
13.231792844855127
12.041912364550276
11.502998365287835
10.065693521449496
8.458159373774302
8.351248288154691
7.357224756554202
7.092699347911236
6.830408564575959
5.04796489011188
4.2788652600588275
3.0981248789847142
2.1557584405051897
1.251224911625876
0.6316065416742542
1.3661613003104367
0.4082000737642874
-0.6733278010877656
-2.1214638164836397
-1.5939702356976442
-3.360946897813623
-3.298151304078136
-5.425082260471985
-7.1976267190413274
-6.226533078855272
-8.112449958929203
-7.616321069880723
-8.803170527133046
-7.5919745967192425
-4.122068127410087
-5.776293412365704
-5.414013773658915
-5.710758820117116
-6.230093270859445
-4.741111680859696
-4.208738701511885
-2.6195922006987638
-1.9028487840887167
-1.858797199083126
-1.1914302915878443
-1.416669983413135
-0.026163206384495128
2.5236458235303187
2.9204658095251363
2.520698711574167
4.9535283887276425
5.255342884673029
6.897652213295295
8.131005113204811
5.153422735746274
5.098034225412993
3.8905728028481947
1.66806778891
2.052272765208481
0.4266879650286898
0.13222358921857352
-1.651878432905302
-2.6319184211936513
-3.0692810440533767
-3.2712332625651586
-3.9275170155364365
-4.477389395530412
-4.641879598810664
-5.014002232694719
-6.45940362500361
-6.204600900068181
-8.2736655082575
-7.1561328408466975
-9.517881645613059
-9.341100845110299
-8.427235906064283
-8.789528081317492
-5.874568682659912
-4.7429087406694554
-3.446450917113267
-5.25537688708157
-6.071942447909245
-4.085619561572948
-3.037010685101297
-3.2070838782000113
-4.127149210954102
-2.1026951420704996
-1.7801176969093473
-0.45962562567795007
0.7158355086703087
1.2751358821845358
0.7010403683736164
2.0130879471995637
2.500083739719253
4.340911107547355
5.088355774721836
4.944600551995797
5.802847618002871
6.444714155926984
6.796319523643969
8.915703381363699
9.636489308415607
10.533085349219066
13.303149031268013
12.443033708051255
10.782239350423467
9.342114827529532
8.303601172360548
9.565511191993954
7.428132028552002
6.628353448371717
5.92965502626246
3.847935722613995
4.650051292397341
2.3613125771032357
3.0715022506822502
2.3336511059649725
0.8309356271480841
-0.19479821323074514
-0.32144098682962763
-0.6556217335939976
-1.7509855196668138
-2.8914965483898856
-3.7871581822579476
-4.566169507489703
-4.824785243018489
-7.104096696499965
-5.5595400393464205
-6.6165274445130615
-8.690408994833918
-7.924924176367791
-8.538048594273945
-7.163178911665507
-9.868230050323815
-4.980585807138329
-6.34404807056567
-7.198121018648563
-6.553652207112908
-5.420812916450915
-6.21161578743534
-4.123454452058261
-4.051526952556429
-4.126925107469015
-4.378323585273253
-3.42950008260345
-2.7766370846553396
-1.6937385571606265
-1.4874321265246748
-0.06385073921626405
2.192127685542538
1.1397646967783108
3.870661528687664
3.6501491959419714
4.838064788747194
3.7760875059359353
7.341783960468548
6.187718684442729
6.64621638859978
7.033680693767329
8.234955350476417
9.06577953008438
10.254756113491378
8.116106986004212
8.429355637622287
6.641267381631958
5.5955815361444845
5.002596161192548
5.31203573569916
3.408686660086433
2.827998255020228
1.4236779215741127
1.7112277486919607
1.0112250905809146
0.14723132483750612
-0.9262742489311144
-2.8663739866779805
-1.9691876343341885
-2.8515822151985173
-3.892218892775733
-5.5152652235502035
-5.807498542874002
-7.162710351577783
-5.546729532332644
-7.372635392522321
-8.179859535650083
-5.788564912148798
-5.222321348294608
-7.765984147405322
-7.743037943711873
-5.25595537828143
-6.153393632053074
-3.7406456126616208
-3.6224342738764532
-5.360796412297059
-4.625198632047864
-2.9910009611786887
-2.381141384074885
-1.6860336585244873
-1.6090065646384533
-1.1221260534054516
0.7652577374533892
0.9015532339538304
2.564117404537329
3.6388580927388956
3.460815249242486
4.920351459475165
3.948591798221415
1.4197162937087737
1.2452223614086677
0.41002805795606245
0.02122802394702999
-0.22113782985131913
-1.052856809298966
0.11736169212222687
-3.200965375623055
-2.8713167964888218
-3.378081526724455
-3.6046176267033205
-4.980632807422225
-5.883805024544128
-6.608031415499491
-7.363612025143347
-8.170932240355045
-8.314460321989248
-8.838528711833938
-7.685144153920801
-5.565368440982104
-6.397640545191727
-5.924533388660786
-5.4750236048603265
-5.264195607316163
-4.971492983766043
-3.682926240629837
-1.6893760008019914
-1.8566005315697496
0.5219439311646767
-0.5966883181114586
1.4744208574306017
1.3223748740920243
2.34860683220712
4.487828760504705
6.293623429964953
6.619637833429943
8.403242026091332
