value
-33.44116672138394
-32.62673013354679
-32.76018886002399
-31.345249384603964
-29.588833939144077
-26.208843358195804
-24.79554745207614
-22.888352362637303
-20.909486345649924
-19.268035097860558
-17.526419629371976
-16.04116693644762
-14.34713002236811
-12.768907320792886
-10.728363512499412
-9.437563564151384
-7.864999964108265
-7.561019863880301
-5.413959778626972
-3.8981981713440557
-2.5644899433966915
-0.7882632431108866
0.709637334322486
2.5363622389409226
3.517947086379121
5.4164477537556355
7.237427070246159
8.3793295599289
9.099785743435188
10.53824153253868
11.79528482237856
12.99921213773668
13.64522115959354
14.871004270935146
15.893514090330543
16.806137701163845
18.369231171338548
18.514014286459982
19.952324567425297
19.477811207700213
20.89615130441208
22.993926812360158
25.30432759601178
26.334000288841963
27.633370413223325
26.894875815104086
30.164202910551918
28.759422895246445
30.703637385233378
30.948761845662016
34.203301889905696
31.04076348394177
32.46749823682916
34.609568077354254
32.59745436257899
32.19314935998597
31.47925387208897
29.838021221152445
29.472406411481053
28.892232410697485
28.73414066778375
27.07971488229038
25.447708871176545
21.75202791686432
21.813376610004944
21.187591070918337
17.768130927586657
16.301391431772107
14.287188575291088
12.48996255613409
10.894506122484215
7.585183780403569
5.715585436276752
3.9660848653153224
2.2111091850318276
-0.7270172700577636
-2.017560050776351
-3.57784881249625
-6.294875951717225
-8.235362842330007
-9.584101849150853
-10.93084740285813
-12.76666935218885
-14.605228766629379
-16.660014902594625
-17.608953559318635
-18.42904779607578
-20.12412336925829
-22.931934938938447
-24.40922499529497
-24.8035432930627
-27.523944903088328
-29.20636731901336
-28.152888254220784
-29.355044376549976
-29.95146314743305
-30.962269519469814
-31.924616015641064
-31.496911928443783
-31.57314099866846
-31.709998870276785
-31.987159789278895
-32.6625375123998
-34.024806955248984
-33.069025733110294
-31.700055752225097
-33.36018761829395
-33.25056791139774
-35.269987297349466
-34.87545757552864
-34.60017381445808
-35.33161324297145
-34.01591102240721
-32.66351476475912
-32.58096725362612
-30.9846926400865
-28.17488503022368
-29.01400155009838
-24.49903459110163
-21.88910842660874
-20.18612809762287
-17.515139210769043
-15.979947601472428
-13.72544804857147
-12.18705907234691
-9.484993340445635
-8.720173608179167
-6.337093558786189
-4.205965007104818
-3.0744812054120905
-1.5344169970206476
0.7202278191223717
2.3983563950084594
4.044808474289252
6.352011952722494
6.831776040362479
8.2262411371749
9.872183683164394
10.350028649318208
12.670844617146749
14.065840123012958
11.984415223265682
15.281590822120997
16.86781317003738
19.95070409364651
20.931574538939007
22.457184229251155
24.64241294434129
27.419035874737624
27.881077085504007
28.817546457737784
30.259858160109914
31.62647393386577
33.46621527297704
34.0335900193834
31.107032766312983
33.73093115202398
33.290502138422404
32.68132022262795
31.38974749184536
31.36328803204362
30.717362116318736
31.770842838466432
29.913298018595015
25.507847879603734
23.8528971331417
20.545036821251433
22.617169343353765
20.563406732836885
17.10892392151811
17.30774362977503
13.924359068938617
12.433913624934426
11.150543446222326
7.8102681103421165
4.7012919439311105
3.731152633173122
1.632868882765763
-0.45221357714624055
-3.322946194167279
-4.788180777408743
-6.807484669907629
-8.431468145811856
-10.601585846311629
-12.506630250274275
-13.783754768848292
-15.417877404113165
-17.136185668626815
-17.532244503329952
-20.140878926184588
-21.84935314381955
-21.785106128510193
-23.809857521406244
-25.886561710307323
-23.808832688287843
-27.857167112085218
-28.101865879011935
-30.155794071175816
-30.42214041320941
-30.66678304711602
-32.08259451502236
-32.5790684162561
-32.640391479385684
-32.94364296251976
-32.27427096535756
-31.29267831714302
-33.65441720053197
-34.2072160441086
-32.58806433814666
-32.39836231628583
-33.35556470583758
-34.35878510368063
-34.611744219477174
-34.14848811879489
-33.84725823016916
-30.728610205873984
-27.14319342623734
-29.551022931089527
-28.562243510058533
-25.57143610916374
-21.985693065337514
-20.97566381884394
-19.930036938628618
-16.850227737501008
-15.017979181900776
-13.126210155129938
-11.490993351380421
-8.887692949596017
-7.466589095924486
-4.889150309157881
-3.009310460204487
-0.02584292870493779
1.4299982997099945
3.156519834917032
4.934773984165792
7.801383601714051
8.585414092743244
9.919156926350894
11.439572961498834
11.68804763409684
14.584938175147215
16.049164693583858
16.535518031375045
18.242054500900792
18.462560054013764
24.132037634665156
25.29673049334407
26.578369789990905
26.761955340062435
28.083082718277524
29.63893985334381
32.958657077774994
31.60263360604831
33.08396359263021
34.63102319729242
34.55255608330058
32.86379256053472
32.903064131590405
34.97072141647418
34.66879102299027
33.34529733796976
32.86683256496915
32.92088300273998
29.90059215171217
28.780061676194563
28.78343869136429
27.215815534091604
23.386828520731953
21.557296354635092
19.882115423380526
19.36988183379045
17.566195330930856
13.922540388859591
9.454059684351956
8.807141725469625
6.143906266583358
4.640498804840064
0.5091354000111553
-1.2407116803619125
-3.3927645230563077
-4.8601911944811755
-6.925813751458298
-8.863306948921286
-11.02363808368038
-12.154484010703367
-14.148401634022298
-15.681843511612579
-16.530997043057017
-18.50265679124244
-19.17513443644821
-21.879408747392976
-23.52790189981463
-24.56171770275588
-25.045536244006854
-25.84723864312062
-28.197200273374584
-28.447731683933597
-29.71786491763497
-32.14932385950885
-31.599656693937227
-31.78453976393375
-32.35372883493924
-31.6555914197344
-32.5439621388993
-31.03638961303061
-30.66887681477028
-31.2896992194413
-29.915871984360223
-28.29707810488811
-26.481057131968836
-25.491993479032086
-22.365898205664834
-20.249868395903807
-19.263601250197198
-17.459127700463373
-14.041450432082284
-13.769164575473942
-11.20886119183259
-10.196062512242483
-7.533791006495045
-5.270499464017516
-4.155652891600712
-2.2128800221379343
0.7813643724696919
2.298698068405125
5.011828588445477
5.332357136824466
9.103747312117656
9.710315345515022
10.453139423241746
11.336468761608707
12.391481893852333
11.9926464707095
12.538737009529328
15.031235924700994
14.77091268301089
17.622985009020205
18.886060317717696
24.60328642193667
25.765690817398426
26.63041460537201
29.381703771760336
28.154585776423172
30.07133946029326
31.107549756484765
32.21552050666679
30.81598115563192
32.82534410097132
33.45399316298975
33.51490225089495
31.464483674485518
32.775873939905026
33.7589122720862
32.91525014589892
31.67451927668774
33.6898680825083
32.61244046865325
29.71695428706372
30.080643559272723
28.172963033300633
26.924869772192768
26.45708707259314
22.833593266266156
22.37693396573783
18.016130519688343
17.213264376200808
15.113356294068383
13.367510787692646
9.671042643143833
6.651694073956845
4.2445672450843155
0.7772287415661081
-0.6567477097398767
-2.551010327175767
-4.275613282245461
-7.277973959045772
-8.816606259452676
-10.926748367491037
-12.541174304230855
-15.190819131571361
-16.35781926853892
-18.211881982038104
-19.84262674783362
-21.79828241354398
-23.41007405225207
-25.986154073079877
-27.03422533615961
-28.94969896590365
-30.27441783842161
-32.96733532533693
-32.85701064261836
-33.783113317984956
-34.76372780643935
-31.51069841434721
-32.47986274092018
-32.992116361264344
-32.749962416664424
-31.898238469766603
-32.629572008253604
-31.81821839713965
-29.60642315731497
-27.836871597049686
-25.169722694789638
-23.271344422586427
-20.39590655455069
-18.810142152174695
-15.418743717482075
-14.341484856991128
-13.73363042283128
-11.566305524419233
-9.274809140323905
-7.881925427041688
-5.023984852132798
-3.6344866060366696
-0.11665856526342536
1.6956397306496245
3.3634158233027187
6.083106256418164
8.301820093456776
9.046068456100132
7.882654744955915
8.130657472857107
11.743922520710143
12.792307374966274
12.872232743689747
13.483183891802426
14.913897807605096
16.036480630020577
19.008981527389466
23.175360476986437
22.382926946053757
23.187532578388623
24.35054289272975
26.59199638032032
29.926885136546172
28.99998115554878
30.699330139201155
31.02242598223313
30.989558733945238
32.349126333181886
31.912556337861737
31.996508726015524
32.8409118490955
32.45378897373656
30.37056636906182
29.165052488214837
29.999335251407615
29.003192631095658
31.35180263061004
27.224459520295817
26.63099667946522
25.99468686959902
24.74529154468329
22.28886593229743
21.73475062954987
19.439346090836366
17.422835416742448
12.976514408818383
9.404300986514686
8.71151523922788
4.852984334445988
1.8190168341723605
-1.574235852464487
-3.3310202611451034
-5.37153758317986
-7.331298021507178
-10.118696631807888
-11.881749022925565
-13.710285088072743
-15.196944910963236
-17.36117781395187
-17.70024483048663
-20.271871228062786
-21.989807865840724
-23.032224145890332
-24.570405694691587
-25.873901907796384
-26.516907793955838
-29.52134502218092
-30.347544004975536
-30.535764087993375
-30.846695670765172
-33.191688696475445
-33.80239341448999
-32.75030724955061
-32.58713629395068
-34.47606636420231
-34.55033222842335
-32.428934070238114
-32.69630491712973
-30.953151424447668
-32.46547739741508
-30.60066052593197
-29.668202166252485
-29.092530765714617
-25.77072383955863
-23.07934446060451
-22.058338375898963
-19.61600456845331
-19.617483937053542
-16.886525483350503
-14.923459093034232
-13.120223556771048
-10.23150492013977
-9.276295112017966
-6.973984212731964
-5.644957829961786
-3.6635688345789403
-0.9061729936094453
0.18455759500382285
1.8715609996097857
5.422487966919185
6.090453658182417
6.920070326062579
7.45929988676162
11.451042054837655
12.545441130129285
13.466987737377119
15.674238512703036
18.368575718029554
21.191303325867942
21.34959679238661
23.837520017664836
25.38148118060943
26.183924207207436
27.591626458729838
28.22137460685735
31.542752711482063
29.87541958270991
31.140642721689147
32.100306954296656
29.607689461401087
31.99970886037232
30.256847245076994
33.75854768696759
29.85487119709937
29.948604035717832
29.60423416651583
26.80685937170871
27.242555846633717
26.406447975454384
23.05174538387847
23.469833547975924
18.790810426771102
18.711571478142687
14.377498509808625
13.081701452157182
10.230503460277749
8.860851115109009
5.881004672731573
2.8934862535829495
0.7000631011638418
-1.5561818236474658
-3.195560254502257
-6.38520526734745
-7.6230838392612394
-10.617306911952449
-11.853605311685216
-13.197559571896235
-15.371573648395666
-17.019036739253462
-18.959941233622434
-20.613336963136703
-21.447150316588587
-23.266782663754014
-24.82605461078057
-26.39563431456414
-27.85748896519319
-29.167440578311535
-30.99350887480687
-31.695608271055498
-33.15293894842606
-32.87878363111221
-32.54274276970281
-34.55143649701907
-34.34729448187235
-33.91049830500393
-33.943274860986634
-32.364384048430345
-33.55371643747828
-32.28763538659561
-31.123195914346756
-30.969674289807372
-30.737254017107276
-29.603604204885514
-27.391916062726377
-24.36946795055571
-22.887274227326706
-22.19142334395787
-20.116781993071548
-17.81042060755568
-15.182576975309308
-12.891446819440763
-10.798058768940928
-10.271501370278475
-7.970610987073236
-6.077746029505152
-3.0660675749275628
-0.3404381191469345
0.07493172932663629
2.984034065184541
4.052050039356231
5.806653965178342
7.243275425118472
8.339613978981275
9.876203290808414
9.432915271370689
10.6894163704375
10.945182339168452
11.960365546725273
15.252319084738668
16.01005957955718
17.636594904121203
20.407207080777656
20.82314279475828
23.42460633619286
26.137989119631843
26.72091128496948
28.314092453538546
28.995991264691963
30.59748718161206
31.612762068440993
30.45103597946776
30.04580931067952
32.150444194842414
32.57019997467984
32.346422730899505
33.95343015711557
33.9367473327225
34.27458472024975
33.992396674199796
32.628725030470136
30.56172532274507
31.62252430456199
31.231384765993372
30.687709681651
29.46465008505788
27.566912852618017
25.785794911516806
25.451116312659273
23.771337070438435
20.864367518328063
20.166981554393928
16.975523372569977
13.96716128448291
12.494352550109703
9.884764153590927
6.892220117505778
5.879457734063501
2.91992522476634
0.695353569185379
-1.618935870929109
-3.217980106646527
-6.361472422449809
-8.288018863914822
-10.214207992900565
-11.595278757736791
-13.97787383328448
-15.866139271232237
-17.043073137865424
-18.887000941804143
-20.364191375292613
-20.420438254603184
-23.769190604301954
-25.379145717601723
-25.45041601108193
-27.384836265582518
-27.063777169345922
