value
-38.850580999656266
-40.27843619935506
-41.01148137611586
-40.83441145273045
-39.13109727537987
-37.92109740682582
-36.470370752794935
-34.34403476968205
-32.25948469173135
-28.68655330009148
-25.673654262027412
-23.23897054039777
-20.666646422335393
-18.148025729723578
-16.455424037603116
-14.813190402396367
-12.41199246390912
-10.766883768092764
-7.533145195992981
-6.51370486539618
-6.252015687595122
-3.8906928945730748
-1.9142824243083345
0.5751553304165065
1.2294516490131786
3.590743231982231
4.551308396303934
5.38659466368946
6.5015806360401065
6.4220496576117725
8.675528042030283
9.098850259558507
9.954638013569866
8.523100925786451
9.478121345481346
10.813568087165851
12.164823785766275
12.79503705179221
16.202690824140316
15.112479568806789
15.517486988403965
17.63328581915302
16.50100933166629
17.7618694964884
16.6991826062686
16.640146071993023
17.92963406254602
16.1206228545079
16.34970745868338
16.281220107271178
15.739170077556105
14.39603816905901
15.330518566705821
13.73969351988564
11.575401376491454
10.561657477601376
9.337049545433239
6.603234047757112
2.5906620758267094
0.6896514187897238
-2.282660534879024
-2.909354243440323
-6.704811077871147
-11.093529385384745
-12.834261828132199
-16.039222556888227
-20.175291534928522
-22.506616899392334
-25.103451685814136
-27.57479613536512
-29.32604579655637
-31.373322178871586
-32.53619532616874
-33.64930527199463
-36.46264004523653
-35.35460122792876
-35.29772680865873
-35.225449323231494
-32.87247127388425
-32.66518571038539
-30.570824992695375
-26.851210398404803
-25.46381066305453
-23.340394620311873
-20.49609274930317
-18.434022687878677
-16.726313546674593
-14.069572716028633
-11.759760191228745
-8.213223374060444
-5.245715987292431
-3.1810449320554035
0.36643840296831337
2.7021266167906166
4.253380811400079
4.6902932911971575
7.271256325572616
8.917866051998674
8.952908117303107
10.522099988732602
11.783079263059578
10.446445336291909
12.425619427646176
13.112363565659459
13.918894938633436
14.87720774520167
14.921091647222402
13.749372897795624
16.252136065542416
16.618974572552993
16.49289940821236
19.020620040357162
20.119199529198582
19.23840378864326
21.589555761005187
22.047389348393846
22.21247901237786
23.477612182331118
22.227071703067114
24.60461413487925
23.912492074601584
23.702412282665968
24.478373890777092
25.210697566028543
24.683574257237122
23.55865230587421
23.617217730514817
24.756678357753373
21.793381186329533
22.475062389426053
22.36648129453077
19.71859049833804
20.66921144118144
19.080881806443823
18.767416768335583
15.202674801989856
14.521321105007285
12.924688433142022
9.254567060335013
6.939949829089895
4.817743661528601
2.2994218359941705
-0.46111262116080043
-3.359367972139198
-4.003374358467135
-9.066388221435567
-10.497414099507168
-13.231842223863154
-14.40928341185845
-17.1269288697279
-18.417578546727533
-20.5802996355041
-22.657073494580423
-24.810249724327132
-25.5481200183914
-28.03998234358482
-30.179639687308164
-31.30711445302209
-32.813840629784494
-32.654919999509104
-34.55073616933298
-36.03713421608065
-36.925997637754165
-35.897905005700046
-36.89345552375234
-36.46911740923264
-37.13826232129415
-35.342162683633404
-34.37397284973061
-33.89708651098796
-30.677216369449365
-27.209358502438636
-24.467667366130954
-22.520349329844866
-20.30659562500206
-16.472055507235837
-14.556263720058043
-12.412070727526476
-10.801042140899522
-8.271820072099345
-6.861800640572056
-4.034713580377151
-2.1077652531177025
-0.3491517062732315
2.6424516620067346
4.081090606621762
6.037545293599658
7.972375812825657
7.902749568640711
8.402985414026652
10.13515273332956
10.747495229045802
13.251318537565103
13.0476887488171
12.984095006656851
16.25982241936617
13.983049845151518
15.889020639811243
17.655208054815642
17.912676929505004
18.557285126792014
18.957872061220538
19.161576450056263
19.730215016853723
20.67819600821346
21.077422179263326
22.436159212180407
25.381999805299838
23.524903877060428
24.235157339710586
22.70201486025928
26.66832656128859
27.02329105603433
27.19437497303975
27.068927738857816
28.700882620840307
29.67519814922515
27.762757832889648
27.46309808227267
26.9459590026522
27.986243244958715
26.245307742443714
26.09759373607369
25.714872247524216
24.95592327597602
25.923816747592912
24.08989297812881
24.321204989839853
22.373714675938544
23.003661578310655
22.06824704017752
18.556569114121864
18.454727509123934
15.813485351482816
14.429758620905481
13.0796170626761
11.417952642976354
7.448117992888275
5.068752654246582
2.0164040268417915
1.1262982834127302
-3.293010855827133
-5.455028818690623
-7.642355486386383
-11.070489559432517
-12.965036825448276
-14.983378008488929
-17.41430907531376
-19.472495363195478
-23.02537206138949
-24.930055339566216
-27.373092542159704
-29.709140485483463
-30.95795451339889
-33.61006910413428
-35.059278501722815
-35.93215438323712
-37.30105281153405
-37.738365454785004
-39.06030270154989
-39.02809693487319
-37.361379337186506
-38.675648848068434
-36.59616212542664
-36.188357754734405
-35.2866375088129
-31.5300576655629
-31.441795293517966
-27.167756402034698
-25.166680693651433
-23.544305264023077
-20.89395221718196
-15.157960556901273
-16.049469902492312
-12.923101732024174
-11.893856123921523
-8.964729658375614
-8.73441674460991
-6.298259216545159
-4.587155560858942
-4.115872038678833
-2.3893865141738253
0.9722581200736723
0.9019597465896703
2.3029620428242974
5.02716897429439
4.943434188991227
6.578474383348773
5.990429645320125
8.922677621100318
10.114013874470245
10.295156126991351
10.780982378986048
12.177095899661326
12.380575212416488
13.791068352846837
12.16178816647387
14.454658110567703
15.240938903022686
14.359002016367032
17.807591122262053
17.430232495162734
17.185729731510822
17.81446446818568
18.59414165981849
20.212653879004414
22.274002286982896
22.76138780016634
23.822968585983954
22.34225496483853
24.61138879677141
23.39370304828001
24.994754532257915
24.466833495313434
24.447848682616755
25.300657388491047
25.581932774897105
25.707222363356838
26.304405148000157
25.82408419116096
23.999521000292226
23.092195848402817
25.465242956769245
25.430596917867092
24.760177734930302
24.830414460987623
22.78143145342331
22.495219071461634
20.922350307542338
21.314987399091766
18.95088721249256
18.73971724692783
17.860493285090442
13.836538724316679
13.664198737380593
10.338541593187408
7.535499424926591
3.8974737043622554
1.5834155854239913
0.7530148180474805
-2.007718802129068
-6.362578549579749
-6.294961597665781
-10.895749981829805
-13.202396906473007
-16.096619514713705
-17.90039248006446
-21.023853948934796
-22.374972178483944
-25.054782705495636
-27.854636685386026
-28.304234942855647
-30.811417639870697
-33.345938853545356
-35.091513571531884
-36.46678255481355
-37.069973095150004
-39.221250901019566
-37.58860801494957
-38.72909693592557
-38.58806664505462
-40.17107229500613
-40.15344826285367
-39.177298634115196
-39.598652863953824
-37.51104618748104
-37.39244542582364
-37.848017663996984
-36.600581155642466
-33.66317351257244
-32.32448458811063
-27.193314547806995
-25.597868059101344
-23.588938552974653
-20.6036332422987
-18.349047833920025
-16.13388109223721
-12.951291858474145
-10.914627512388305
-9.251063360141195
-8.02408152719616
-5.430657916011488
-3.5663258838748164
0.40052598676143025
1.1438560354332037
3.3354668585064298
5.373521899129493
6.43539127963654
6.81092166263645
7.874608316133168
10.92028603083342
9.139183667236868
12.019000024630614
10.17833945591632
12.626924461943071
13.900441372661135
14.287105809400122
13.7514127648041
17.712390648891745
17.342817691550945
17.091251142559344
16.75217116961308
17.180168251866185
19.233539914617936
19.065434875222124
20.1812047937603
22.12721251509458
21.227515227742632
24.695046689105276
24.12484523422465
24.828342410071436
25.419046678477
24.338551723533055
26.59514373540926
26.62799234158025
26.711742482745958
25.666569305762586
26.60310407583795
24.992755592985645
27.092869063650625
27.34320336983365
25.99028117991286
27.47365730003644
27.880070401669826
23.95794009505286
24.21809356950098
25.095088933185025
24.511848148144153
24.01580175247568
23.811137609382502
22.7889974062581
21.81574600148534
18.005935807708013
17.78610025913593
14.48781372259715
12.329233624861983
9.6309963933475
8.918121256526991
5.438397511473684
3.0658859677869015
-1.1225253294627804
-1.8323402989097979
-4.289933096200151
-6.974889225114318
-8.39276534556349
-10.488315537136804
-12.115829644885373
-15.077245235692674
-16.274805067028915
-18.62485895191312
-21.38976395065382
-21.480440656806678
-22.567765704759903
-23.11959530182193
-21.25013445639578
-22.63164123018815
-20.08438403124269
-21.458264516552347
-20.07367529006914
-18.491290669502806
-16.415847507628612
-14.681828241237033
-11.55309513998592
-11.65820244103736
-8.499936273801712
-4.252714498728525
-2.6783186857668886
0.6562488736605182
3.869340182179633
4.43053536052068
6.13286485951865
6.886265239617219
9.170899465075953
9.511005446408662
10.775315116033745
11.643404891431834
10.98662300842565
12.064943817560748
15.087210187739117
15.572089312997882
17.313275544074433
16.12451366981233
18.169065323630196
18.721687537619644
20.093745115406694
20.33579913736436
21.67100035578544
22.269799755488656
24.376136902874745
24.53812037758691
25.906960865972028
26.689577891729368
26.520361011022796
26.259077253154842
27.180557552329056
28.264072230744578
27.995212687658146
27.939597591932838
27.45447368251819
29.062291272942204
28.543397554474755
28.804356727850987
27.612120678416137
28.733158526107413
26.943083075123344
28.132950739551557
25.434797786902667
27.008660752797887
25.462137921658808
22.97607838956268
24.05461784836391
22.76075270481187
22.759339354183545
21.693286018681007
19.214472000315713
18.73691463981056
16.988114032559004
15.649538727228565
14.510215182125544
11.515304951366335
9.693623558270545
7.440857024687591
5.431437282271212
2.2308464360499882
1.3420514358054296
-2.257727219546879
-4.620629338410702
-7.802283066257015
-9.397965159219314
-11.841589402172785
-13.52618578436193
-15.493342741967039
-17.95309714382386
-20.03988495107104
-23.114162951988046
-25.008455349650767
-27.20239254361214
-27.680587409328414
-29.62767898949783
-31.335505863344608
-32.92837377648005
-33.451283550561655
-34.70331616848848
-34.7410253640584
-36.00490064821753
-35.13300078941246
-34.527125616125
-31.925838833600437
-27.48427702934586
-25.136266379492216
-20.650983833614823
-17.91054714488404
-15.74791848022516
-14.515313625743293
-13.090923730126363
-11.012313078581435
-9.599092582824355
-6.880133476275586
-6.485949785999757
-1.9404780429841137
0.9075356268998194
4.399964303943714
5.282302691525979
7.654362869854591
7.391571790061329
8.15279514062934
10.608596513618952
10.734270662690397
11.314458509899737
11.826771014005798
14.39509008119937
15.794333879998295
15.599621583989322
18.542189498810334
21.774504557481887
23.041386131423163
22.880316091688606
23.290641149233615
25.001798759023018
25.38407962089796
23.501951676721205
27.21918399510046
26.593144544453818
27.606116597151782
23.74185791728538
27.2921037842227
27.116842727378756
26.865161728351094
28.0706698240449
27.278575025534384
25.96124538160698
25.551800603543906
25.03589236972795
25.5970031530976
25.557117133635042
24.67467363637698
24.910696628620403
24.160948408529094
22.43957638229126
21.18440478939774
19.52915325181863
15.842503664939517
16.452508742133112
15.620548794225286
13.484820276037752
12.069820991075543
11.465435951419414
8.176729807301903
6.882882553171221
3.7363565128126996
1.1387084699424843
-0.8454762593043429
-3.7391592885880534
-6.601317995674993
-7.750595680245884
-9.379419565318019
-12.784104446534236
-13.933398681384956
-16.617029770140526
-18.83016358544388
-21.544479192603895
-23.509234247135595
-25.539525174533768
-27.3363679576439
-29.345777525099724
-30.97037284843598
-32.03851403298032
-34.2660929650957
-35.35065837431936
-36.83045328627285
-39.01290970642021
-40.09698465897684
-41.525732732269596
-41.28439284199041
-43.09432918475138
-41.24277389754752
-42.146974176967326
-43.67691019003146
-42.3096305337811
-40.14480701341899
-39.93762283699262
-41.0853514319308
-41.37748368834954
-39.8651703067861
-39.05420262304843
-39.49129527586712
-38.49254685356369
-39.589086330006246
-37.697551120253856
-37.32347585051796
-33.277402355936594
-33.39298236444071
-32.41266301183593
-28.65649477179189
-23.817387344937796
-22.20460300969686
-19.699973221778073
-16.344059925075506
-14.13975121500571
-11.002856140588987
-10.146125142748621
-6.985736008217122
-3.4214985700657023
0.3497249378725345
2.0418042852359033
3.8132516754295267
5.183663514054944
7.229098748280608
9.240621924040845
7.858885314842509
8.89050743616786
10.486631837490663
9.98282347386743
10.896384665360294
14.815985289706063
15.670001720480657
16.901782370371933
18.713106413283313
20.46521758218418
21.24200208188597
21.895053885896118
22.47397667242516
22.406847756033475
23.225401505906117
22.003513767176845
23.938502546936757
22.519222725558574
23.12491949724128
24.4202580419518
22.389385614040258
23.774781350104846
22.6070173945819
