value
-24.918483134456793
-22.568566639730857
-22.0716147093119
-20.6702289220385
-19.552187423444717
-18.088135685332606
-16.133062881011156
-12.889240766938453
-12.504670870980178
-10.426844417896383
-7.82720497873697
-5.848217111477926
-4.130308811667379
-2.2183921607346395
-0.3060916839409954
1.6383989579606657
3.3755381056522578
9.886872790374845
8.97033494573116
10.478365887341859
12.809652990852474
15.629204995421494
16.570817445885485
18.218713808056396
22.15058151301167
23.30651353811303
24.51032065527311
26.88232228935994
25.57632847582395
25.739819740686915
28.744478908670743
27.936770390560376
27.774935187094428
29.17272285186193
28.81121649564665
29.453396997737155
30.554689996157578
30.047727246476
28.600002206600504
29.022833151584774
28.68951132843691
28.165141871438433
28.77887154794545
27.098123098951746
26.258047470776837
25.809723640421822
28.292770052063055
26.496069337742078
26.387590844626853
25.305818960594507
23.937186921114193
21.860217494031936
21.811757766979753
22.188909313255518
21.991756464266885
20.28004522558548
19.124012747292856
19.371209510989306
17.717221863101205
15.692469925724158
14.94936653235403
15.29081104386951
11.925498669722131
11.893024887022468
10.525045514390278
9.399914663774409
8.945514879201475
7.872545145422455
5.768069160696381
6.0372198916897
3.546287277454738
2.4552645854272095
2.13719000622531
1.4550930062070817
-1.543926296357242
-2.3639649232388624
-3.1560271529121398
-4.166768966588258
-5.418076934287122
-7.4884682844391115
-6.64478291042148
-9.527976436636092
-10.451865887250861
-12.325361776334804
-13.78101430650295
-15.443850400776132
-17.116221298205126
-19.04703036388077
-19.48196296355424
-20.24286250355942
-22.10665862171827
-22.15429805209947
-24.012233136480287
-25.9771204714783
-27.07784445660481
-27.597452461249322
-27.906909897762347
-28.809526087529765
-28.38311647900566
-30.88866482104696
-30.648010518841062
-30.886745497184883
-31.463797875934564
-31.250308336855223
-30.980797622419914
-30.686523741159732
-30.357355417908117
-28.70875327709171
-30.280563808209354
-27.966697502707433
-25.99879127275563
-23.06400369028979
-21.965973611261905
-21.470852493267024
-21.02353417126151
-17.788683781164274
-15.688329929065157
-15.104736992477658
-13.836094975406542
-11.494227989874497
-11.018525704819849
-7.522396264423979
-4.430498538884794
-2.867048768751523
-2.0406591691639324
3.0861924689207645
5.309401343141266
8.304521152015495
9.716902386929334
13.273320138270135
14.0157018982663
15.746982912056518
17.344974128211202
17.485774622804573
17.604532604298456
20.87259925002185
25.726309697116548
29.394478385754155
28.464161676301075
27.39101318307182
27.544252135580845
28.635011937215133
28.694673043574664
29.69381198093959
30.42934000475275
31.099906336254595
30.84959954107066
30.757242569531087
30.756857009729355
31.255908511311375
30.449112164148428
31.667068235106864
29.577425787922085
28.60462089344221
30.39427817955211
28.746724835365328
30.04171126652247
28.584955126220294
28.295161566316338
28.37859833167032
26.62710581692534
25.899560919627085
25.148246795853208
23.37158668688539
24.257310150819798
24.363856516560244
21.415630609549027
23.131175001651997
21.929527017439668
22.05176072337026
19.515289128343994
18.934394583429498
18.568497426720842
17.641034043855836
16.510728824639724
14.10649354393611
16.106457397653234
12.432065337989707
11.354622994138131
10.629204531623053
10.708035100347512
8.045544450199138
9.631124190341808
7.534960446823346
5.338807138523857
4.824441586925891
2.783781001371693
1.4742874688953933
2.542431433670761
0.5088130720909004
-0.22864255609331832
-1.0799881192136986
-3.2033413416129854
-4.321040032255031
-5.204341959719142
-6.153265216426961
-6.918494934249452
-7.7306172962665505
-9.425054000508341
-11.462966927949198
-11.918539521454015
-13.588307370521143
-14.564907523475055
-16.807574193333814
-18.102188399586353
-19.79013874709143
-20.722450820848746
-21.8761347324351
-22.254103804522114
-24.05264595610635
-24.304668727001555
-25.54206668996812
-26.31136003003247
-27.154331766664296
-29.010359316393714
-29.529627959907316
-29.679087544658604
-30.80739610519589
-31.497738105396806
-32.35293706107771
-32.4481762102706
-32.39560009720894
-33.50467499597091
-33.44693684617777
-33.958540037360706
-33.2639866355663
-34.04347585043272
-33.2546002503479
-31.912553387417617
-32.57191981928196
-32.119927283053336
-31.741685029355043
-30.651490568521673
-30.71404882073188
-27.84455576444787
-28.210166529789
-28.141456412345022
-27.680419444083046
-26.6267953953434
-22.007980219018254
-20.909572464513914
-18.432213526755078
-17.171754885032314
-15.618044439200327
-15.334064430820415
-11.743546023398542
-10.29303193493084
-8.008637376927418
-7.236152047160284
-4.7048402735092205
-1.893594293346134
0.536164058379392
1.645708185566204
4.1993345503700645
6.426178539843993
9.972004507167659
11.826010443231976
13.075073508081955
15.99125445770785
17.597217108286067
18.97896231760293
20.349076923204425
22.04035324548001
23.717833446856584
24.7485748606882
25.17748788260686
27.21923295147647
29.060359849039713
31.21632607556048
30.31688665578935
31.88464071077856
31.50824367618131
32.571700945673676
31.9737586587306
32.75384142245221
33.980525435303875
34.36328897375453
33.28046646071667
35.54888873892141
34.907157797377515
33.135707099581616
33.371373261638134
33.032651999055695
34.07278436462166
32.15729137292267
33.97767781971265
32.38106685983081
33.517906706523696
31.36535987153772
29.98609352685665
30.905507369814373
29.751829017517302
28.794600323791382
29.890150823936633
26.871282440215847
29.15938441626174
27.30145741393587
28.93593637610744
25.5695702409821
25.204992042265694
24.370746430892776
23.39626398846809
22.547108176778202
22.860276392819824
21.283976629868356
22.484177908915704
21.19359820317462
19.18813250004637
18.87818368130618
16.30233740758903
14.748856559739204
15.57027673062741
13.551176978627547
13.050095498090057
13.880723209494596
11.438071355433797
10.657850652596187
8.047008151122013
8.828578433977004
7.920151736066471
6.053628320650407
5.417869888854309
3.352878103640979
2.4833178270176917
1.351362213665921
1.289960517860481
0.15839380094615246
-3.0007263764730316
-3.017386277764841
-4.515995767370148
-4.443911576710042
-6.067868684115422
-7.857079897472586
-9.136234723386035
-9.624560191788749
-11.547557501223459
-12.590164691507818
-13.413434054383579
-15.260065006464297
-16.24488212307556
-17.732158914345984
-18.33981792432175
-20.364834239213298
-20.30202027837808
-22.312444089479197
-21.777552456633934
-23.028665274552946
-24.708371605063498
-24.977903611949365
-26.571213625248532
-25.485961321478708
-27.872397794827403
-29.28791413281613
-28.793307748593108
-30.165532655432912
-31.354656526117214
-31.655058983384084
-32.173395889520286
-31.70236197232408
-32.98922593835233
-33.068691677717425
-33.00213269270274
-34.721341923948415
-33.83795830204863
-34.19798240890216
-33.263200414940115
-33.79823152640945
-34.50255749708406
-31.68985935626527
-32.415580985667475
-31.905563196988666
-31.122522238823052
-31.476195088926005
-30.270773716269513
-29.753490792452784
-27.264667065286712
-26.79441683462896
-25.00843627348123
-21.746582476668532
-20.956131751580024
-17.924657024478453
-13.795225687364475
-15.774347830506283
-12.798456978770908
-11.635414602246675
-9.422728662655668
-6.818348194017336
-4.824546330609872
-2.842004510498098
-1.597841870850944
0.980890587652808
2.480649358202447
6.5842681786196815
8.979033030253099
11.717235290295863
14.198727261661467
15.732736256307973
17.971546199883928
17.84742900877735
20.672313674772806
23.259233959593168
24.11297244741468
22.78160338773898
25.209129832135208
27.921338649477942
27.970221034585705
29.253448511023393
31.31141873934741
30.618167343269324
31.59213001591916
31.327079861951514
30.72573654543321
31.65004290319007
32.516303106689094
32.4102134899488
31.876939826641276
30.94048874544322
29.89100169164296
32.48018783530809
30.670627644072606
27.764993085667644
29.53877354580899
30.795230031194937
29.122419948171085
28.308521234317805
26.699655300647063
25.738405065765004
27.000036251897
25.427446612935533
23.771115821238755
25.864686836442534
23.092176217483992
22.34643677567467
21.987024764544476
19.71229423892304
18.304792833721695
20.010136472651425
16.724013191562243
16.85743150414226
17.55663791083435
14.998589371427459
12.611855698124224
11.912495580008475
12.552490743880618
10.66006897439625
8.74182843858507
7.233132204284288
8.20357550889265
6.271820283701239
6.684151204240707
4.647182306833083
1.9339348854455514
1.7217531454233714
0.49158039264232106
-0.5392312147184708
-1.7000029120328168
-3.6105436706727
-5.156578297141501
-5.660342132652322
-6.517768614372194
-9.326329352970571
-9.88027575924281
-11.975277765951732
-12.78773217425932
-13.815111655256509
-15.124010882156794
-16.827802572549697
-17.8762503107232
-19.90884676625574
-19.84820694950089
-21.32021449760698
-23.380144960768668
-23.74254076383443
-23.748013073377564
-25.288183516403546
-26.707014612198513
-27.16785360933436
-28.245636170998182
-29.102781388523958
-29.218903149406316
-29.15157743118392
-30.404605392630014
-29.112475512466787
-28.80751552686153
-28.491034872025484
-28.10591932305877
-25.29764799011585
-25.508683746979372
-23.08581900080461
-20.966910450433993
-19.856870918227237
-19.023609607433468
-16.022082925380584
-12.998354344246975
-10.095300373832082
-9.141023781317926
-8.028732045375195
-4.383408531683783
-2.011634443683892
0.39449949222877345
3.103987052922081
4.604366625752313
7.548110827146115
11.665896515838183
11.97717416072737
13.34393008058698
15.814514385804562
18.30637493110614
19.97764317461148
19.560006572864143
22.284480243261047
25.327156569426908
27.424576673294165
29.29793626851288
28.376927781834592
29.558670842287228
29.13829227480227
30.564351666017764
31.107583972661885
31.68065951833963
31.654180608198534
31.772464934111614
31.492073789733162
30.51807767801409
30.93157212790829
31.693138462209376
30.841504964316872
30.149207392592256
30.06422873071129
30.688984301609604
28.78015260177751
27.65225801052057
27.468759209627674
26.586209129215977
24.91616057490693
23.376898196257965
23.824162561867748
22.404736072200727
21.543398113061926
20.150785412957756
20.313158515225606
18.687417067447235
18.927226376722107
16.77499492879276
15.86684347515907
16.11267278438484
13.093392909731676
13.521913181823402
10.75054486016197
10.609864599105412
10.151851308823435
8.635847508378681
7.034564272451747
6.507203325996432
4.677277236773963
2.707831202505349
3.380425125451136
2.281692901906842
0.8901361127021471
-0.15439605090072042
-0.6031949388490303
-3.6098011261566314
-4.7829646370810135
-4.754816037121665
-6.3570331532721
-7.578995231157282
-9.08337624896577
-10.609265842860845
-11.023133514240978
-13.342848220605193
-14.24186622938965
-15.40034056029337
-16.734398672922183
-18.279394868275713
-18.58179609148296
-20.143950645838498
-20.650711791769673
-21.238911122509776
-22.01269457508711
-23.505139809340406
-22.57537739713717
-25.566719130062914
-25.685793317971815
-26.86127757793588
-27.330520032216487
-29.100826215995845
-28.75728202281816
-29.78078077489075
-30.533179224781392
-31.684342467794586
-32.08407069708356
-32.33433430319372
-31.885520780506535
-32.5264288396501
-33.62555701159486
-31.233358938392843
-33.34518911413329
-34.49757404417152
-34.09968944283337
-34.91914158429404
-34.29607321322213
-33.890130920661086
-34.18183981163971
-33.9559597808271
-32.00860293571689
-32.72117814736467
-33.061548576884086
-30.58773904431676
-30.789736734363828
-29.62792776564077
-28.31265196762389
-27.460237359454762
-26.31206139505451
-23.05759052426942
-21.908468083834727
-18.873911214780893
-17.210885048804613
-15.948918798788208
-13.666085994581245
-11.15854638042485
-9.724405141101197
-7.6736893449489285
-5.915104346878287
-0.9319715895549286
1.467067365384456
4.157210285707704
7.303387516704545
10.985149494743998
11.654390249674087
14.82336913498475
15.761049113276888
17.216935025759017
19.074135075573626
19.78819353848076
23.038942995686952
23.986223214510336
25.66842142568019
25.659575793109394
25.72017145465473
25.716059352593923
27.38244600106075
27.191253127234173
28.323740101237345
28.48709634956529
28.322722032721572
28.71517220789271
26.28576596199782
28.35089814850035
27.77478105447542
26.730534959576936
27.353271288140405
27.849201401675597
26.71598498641489
25.84346190483611
24.899865049216533
24.351274784768385
23.744149905430206
22.354066018346266
21.064661702290813
21.356254053268973
17.43066019253345
17.78049352738153
18.564349247062378
17.153659238845385
13.57693848339741
13.16711777863286
13.76772146121105
11.731086918868014
8.923793595521692
10.519252392848903
7.778420345044194
7.802832173469694
7.763622336511064
5.7989515341451465
3.453608882701577
2.0343584283507266
1.8519710372634515
0.28696911676291886
-0.5062206740542201
-2.4531661072927218
-3.2173294237765577
-5.022730761764373
-6.722372031282122
-7.816783528382206
-9.03370039946141
-10.648358632340722
-11.651148315724475
-13.366697603953616
-14.820611331045416
-15.905668959645807
-16.841038119429214
-19.009850051448357
-19.895009107230994
-21.415661513798412
-20.523282378384764
-21.835658132825515
-23.46172204391447
-23.83959903970604
-24.40272912297373
-26.415333665935496
-27.211878810593724
-27.109933988648333
-29.310223910044122
-29.97118192519752
-31.709765435319667
-31.755774621835958
-30.928160502007866
-33.27188932939
-33.98933405697802
-33.19229273273497
-34.554986076963864
-34.43101011570108
-33.361776565126554
-33.47653594501008
-34.53743722611892
-32.9950409248495
-32.89407972426735
-33.10893003758926
-33.068647420788245
-32.45130208538005
-31.771872751020968
-32.00526202228656
-31.456962149765538
-29.043914892682764
-26.795385608060784
-27.308745122945982
-25.379058265543584
-22.326404453166614
-21.031859866284908
-17.8865925944839
-16.25989769711903
-14.956089899705825
-12.775155132460068
-9.004701743934119
-5.941051547879652
-4.114884167130441
-2.3842889694350236
-1.0129326222221757
4.568508379881949
4.023469343712584
9.584146295040922
12.015854878050684
11.97203161481806
13.003952116796855
14.598978230582436
16.240725804191005
18.945269073140874
24.600738744467
22.26415185587638
24.775113171779786
26.65861652731771
25.78061515295456
27.404660634778708
25.314807820491225
24.853827095155598
26.72993653253889
26.92763776516782
25.161080804562612
23.848577928953972
25.32647565944084
24.601915264581795
22.681078538388164
22.642928782867138
21.12566275144221
20.913888211065142
22.186407922689142
21.420880870997635
19.519715885167592
18.68070415823739
16.774997010609624
17.319284088583643
17.39971071379073
17.174054524697024
15.346446765083833
12.028949839899422
12.309914363731156
8.671184021980546
10.0578246865741
8.089518936758079
7.4731856207183895
5.147558042505181
4.6021329729637275
2.4637172312298388
1.9413810262489042
1.7403020584183957
0.42408943932779636
-1.2265260375037885
-2.1161117054284277
-3.709480323867245
-5.230157984931651
-7.336839348805753
-8.102555243356267
-9.584939533522801
-11.30127930529183
-13.011207777441507
-14.168078706569263
-16.368975082999167
-18.312404212625474
-18.70557720857463
-20.496594683102945
-21.60023332532264
-22.74590137442375
-23.391564355941878
-25.512703660530022
-25.1151508340792
-27.242269721883044
-28.688903031091453
-29.90232192065521
-30.13620410919149
-30.119043018779134
-30.894054887582662
-29.886093975478765
-28.891600769640732
-27.784165547288357
-25.66080303169754
-23.71284753140529
-21.578857458599312
-19.68202256374683
-18.909666162005713
-16.664318097652725
-13.669400410072106
-12.593810092071088
-9.568794623473048
-8.425050454226719
-6.71362855546224
-3.8872599841874416
-0.16671697542879038
3.3162247876625712
6.549548651996191
9.590323483661907
12.316980416176406
15.095203569289358
15.685973529991532
16.325673412517972
19.029887552992182
20.352689999215233
22.11139612698872
26.273156006783143
26.69752316267009
26.494002693434542
28.694564216119826
28.052445025619626
26.9217633129639
26.71091034681156
27.189795289335244
28.001455742775693
27.061707747176214
26.900300159773856
25.36895584627686
25.621965036455105
24.81531724966393
25.00363486476002
23.534296910671955
24.615825574679775
23.865707263132048
23.770385438707944
22.373561814329623
20.881369817238763
21.753592831074492
19.24471077601999
19.23548369112295
17.65574541938352
17.813832352562645
15.679295168239108
15.634499478406156
14.928575607518884
13.499976899483023
12.480082879567023
9.555718902791256
11.357538892336095
10.069434212070805
9.195024641600813
7.518322812780562
6.033307139696722
5.470551812078555
4.6494529154046695
4.451079377318611
2.3805735293680983
2.0490399361896543
-0.28146033087022526
-0.4725679687234205
-2.212880199353636
-3.237552053853684
-4.887118658490456
-5.73687939763359
-7.478317794758043
-8.763123661244236
-10.506229464665187
-11.779158532171868
-12.03324377921815
-14.22619646413842
-16.044144461145798
-17.49873535311255
-18.229803389843447
-19.477644814539417
-20.071819305157668
-21.054430889510954
-22.07933943158051
-23.78150315337388
-24.64073569453862
-25.06513256283906
-26.46828637117795
-26.806883340909348
-28.116005938026827
-28.110379966266485
-29.95608292782444
-30.130939031526022
-30.032461927807045
-31.44143892610232
-33.04499957250071
-32.39182309866581
-33.21724635589991
-33.18173866367651
-33.60820657028992
-34.60589886057899
-32.64145868025861
-32.83441440433717
-34.642172504692084
-31.676070137528036
-33.905147302786986
-32.987346723630615
-34.8929044279799
-32.770563486011966
-33.48601388951852
-31.474928594866864
-31.676001448709677
-31.605784943834497
-28.563366045532124
-28.09594445066223
-27.115540647887197
-23.181930196423764
-20.254742917177325
-17.97855046983318
-14.958809446042624
-11.807251610836742
-9.37756372977445
-7.566489930663106
-5.57111239024018
-2.912959986681208
-0.21815753498343804
4.314883773559546
7.198918405869736
12.98506992316474
13.996402202730433
15.304133814685402
16.610636525822077
18.127621223720645
19.654026437208543
24.80413045018583
25.4445659472432
26.703470874826756
26.144117824765434
28.581884870637886
27.170583171043127
27.48125557563594
26.262499062792227
26.650781524924923
27.675820692727292
25.56666470639458
25.8569448512368
26.385280140754734
24.49027524372622
24.92861032914238
24.20421142409266
22.98202060600738
23.73650900348119
21.437233905952883
19.37178055137192
21.54754966388483
21.06356648213688
18.114598284300072
19.535170919966202
17.422876922472764
17.564080778396693
17.587183418864775
15.944597310534288
15.066337470449316
13.75717076763454
13.439314940240688
13.019333791231912
11.603036443067985
7.868720280349311
10.293240475740145
8.918444403194894
7.127480475621861
6.056354936720253
5.962847662940284
5.036303480616865
3.8141898795150917
3.084870610996846
1.9681432708243884
1.0196330025250353
-0.49431681231852076
-2.1792326441378616
-2.571158074960532
-3.413928705332399
-5.528404212274929
-6.041624684625917
-7.7415348424009105
-9.047976377482888
-10.886170696110996
-11.42498999301178
-12.520457459454926
-14.101148826132244
-15.335684664980413
-15.946424153147683
-17.181084695710545
-17.577413951509573
-19.938845789035472
-21.260676465360497
-21.57658752324275
-22.61713665705728
-24.257870956576113
-24.42001081558129
-25.797840138577385
-26.799293716282577
-27.834725618622016
-29.02074607317229
-31.064235491777122
-31.131651606181062
-31.144126760510733
-31.430465815337833
-31.839171996701545
-32.91331964773653
-31.48878958234549
-32.078277987198156
-32.20412049525499
-32.747065677069024
-29.94899235832046
-32.04601955974879
