value
-36.02583864114679
-37.96745762359456
-38.134337825425916
-39.53371492689101
-38.83865503182057
-40.121873629565364
-39.40817332271559
-40.645123403028926
-40.78503680585567
-41.3638431399769
-41.78045182548469
-40.268043240079514
-41.50136324831423
-39.3101479478272
-40.90985846330225
-39.93504189401672
-41.02176616605127
-39.903022912459825
-39.047267904581
-39.041203179580606
-38.247970095498374
-38.33384260752937
-36.23292312067168
-35.77000726478808
-33.63502589120712
-30.3199640598305
-28.415098674174295
-26.263779016544145
-24.051456457756785
-21.577238895345946
-19.171477993264855
-17.195604623496145
-13.233391223231056
-11.881573418261649
-6.706997305255255
-1.473366693806276
1.8027239933562118
3.8797777049305484
5.492867352278928
9.897446683851486
10.45616076095527
12.513057542640786
13.06940152124314
13.380199932137062
17.648780989095716
18.841323632329022
20.303198756611717
21.645935854445547
20.40725097823647
21.652640096445076
22.9369178778633
22.173447857415198
23.858680375546136
24.914083416428774
23.972475803016735
24.106795638500557
21.46238156721924
24.32817929937122
23.478404975495664
23.717732623854808
24.22856864320356
23.39009219900909
23.49933412416049
24.383316971268272
23.934955841899363
23.620671235446103
24.30532926090494
20.595822444657287
21.684289212484245
21.066448516921504
22.5782117029337
22.693747092089566
19.785519418164967
20.86099388079637
20.484862713024054
19.549278169784802
17.277360451197936
17.05974792183791
18.66078896525707
15.467248790639651
14.056375780029784
15.547508765015696
14.843816954274292
11.786705471968567
14.228370370689726
11.936939590359971
9.56222925002711
10.763789298980878
9.672470623071735
10.28191637517038
9.483738893443604
6.2282801278411934
5.598329194393243
5.281635965917585
4.832837566311867
2.55944028532158
0.8128113416600415
-0.7424006930298832
0.5418797461017807
0.4605638323908117
-2.4429562088774603
-3.5482123295447843
-2.645486416562183
-5.533773483851139
-7.464004225085181
-7.248421677242952
-7.891102843984079
-9.91238225004447
-10.560716363752832
-12.603884596663832
-12.620286156436416
-14.64476348151221
-15.511677527857092
-17.234993879866078
-18.447837963186
-19.30748279250314
-20.39123810905694
-21.625418975245495
-23.621314863983073
-24.2298308361723
-25.260762470893884
-26.9946412514035
-28.312716948818355
-28.92873652101217
-30.084383969690748
-31.627803513157914
-32.142711806846435
-32.574501906003476
-33.681524788955805
-34.22353892048085
-35.21893816557534
-36.19766567616866
-36.533684666615756
-37.06381838400394
-36.92433425910142
-36.69744338730777
-35.642811466841984
-34.58784586755295
-32.927223821050696
-32.95573277332019
-30.31274900477881
-27.518095423955383
-26.4944670837413
-24.75465910597088
-21.487709048248377
-20.889389987842346
-16.72729602568074
-15.661955884435024
-12.098172138835542
-10.761660223687217
-8.189130499080775
-4.322257981299793
1.3029858904223601
2.7872094924299677
3.9624608600593443
6.40841199314793
9.087123632544142
10.192084245892632
12.363454704848932
15.062959477679778
19.257603948651298
17.161071090475662
17.576632124731105
18.17642965768925
20.62833889382127
19.929378557001332
22.63116446261566
22.553450629324583
23.636745667741582
22.365570482688625
22.445072319506153
23.18353608525057
22.37478547436787
23.145806818788955
23.17937117480678
23.924563761900327
23.41029860029729
24.091571428718808
25.0973390527276
22.225377983997934
21.06742409124152
22.486091728884016
22.34468635449689
21.948783450323532
19.710907411887877
19.87586500176052
20.882814344955783
18.93979912133048
20.159467311730026
18.14843223380197
18.723388298890146
19.482627109026822
16.695588614564926
15.230724388348243
15.145579230700285
13.857649765415395
15.688558774219741
14.623185269355135
12.3108852708388
10.201560415108675
9.987214165409386
9.335023839424753
8.452168436094523
7.132418529340051
6.531687231544068
5.861353629381013
5.21768041330047
2.56259185930907
2.266357035850272
1.2618909556672042
-0.840062015789702
-1.2864567553172688
-1.3683281566871848
-2.611460208372962
-3.513532381593403
-6.464572582558113
-5.238143422408416
-7.52361235737088
-8.752205818731907
-10.916045330425765
-11.624733841830732
-12.256403157484122
-13.089056056409424
-14.903010870507801
-14.899145130762992
-17.109438782493008
-17.383864659053494
-18.709986550303082
-19.632768235189484
-19.527355066028594
-21.77798037172026
-21.29864248986522
-25.361302308747007
-25.912980597473403
-27.86275707731357
-28.475990251051975
-29.57786329071595
-30.454815584714424
-30.154457824954275
-31.71577485544525
-30.349605688231044
-31.171568570416188
-30.960427017218617
-26.813327641085667
-25.958599070139254
-23.758511703872934
-22.43701585947523
-20.242530040484077
-16.023683614437626
-15.309602549348913
-11.455730579300525
-9.868809835084706
-5.5943700600274395
-3.3391633898477857
0.09109312556475704
3.0151468682755613
6.9678088735501955
6.626289509469486
7.158775578546238
10.925920833214299
10.344800752076026
12.666789411943363
17.638718017819574
19.97033196680363
19.713645944091457
20.409375694399877
20.921184187868786
22.317049572692966
22.415439857748524
24.561156018001032
23.865548295744667
24.322569481314805
24.750538357775834
25.13637283396809
24.25330738318162
25.77425595864521
26.73112201021476
23.12070746404494
25.96489966311382
26.230269567773547
26.509679110589627
25.534792781330758
26.07937303430175
25.05738812131061
25.3854535853226
24.703746662233314
22.78863606094228
22.39804562081164
24.487460557435565
23.57741672139967
23.14596183224176
23.400497713947793
22.346299805677518
20.598410853669293
20.20150223254447
18.839316678211002
19.49411679302733
20.124513317313124
19.554666071073132
17.199004509530308
15.534157439194505
15.461447617675486
16.5045618515854
14.260296984905846
13.328955198920696
12.605223111682765
13.004003006121373
11.316414959431318
9.763491702581772
8.069607287743372
6.506668692417382
5.608355381300495
4.962766266712972
4.660715209386774
4.118353456366635
3.8008353656285045
2.523494687243863
2.1387043302724207
-0.4786341215832358
-0.7850813846008241
-0.5879878006861098
-2.8420037562593796
-3.8779094673247556
-4.59776962516927
-4.49548692237536
-6.64924152441984
-8.887966899724447
-8.050821253319441
-10.196542626150833
-10.63140441930508
-10.461053576270361
-12.948905502940402
-14.360851124060387
-15.32037538332557
-15.625250986392782
-16.57632457965752
-18.242428145374927
-19.346054392679022
-20.381263960058995
-21.396119757274427
-23.10172947413446
-23.8438235214868
-25.40226013696714
-26.175845095009695
-27.18477216753185
-28.67251395254924
-29.699265268816525
-30.368037331596888
-31.846262492038726
-32.961542139384186
-33.45785849702301
-34.05459674511618
-33.24778026808389
-35.98968853799937
-35.247855596142436
-33.915884978467176
-32.4967887550692
-28.60115916022936
-28.134545929640534
-24.170036077260043
-24.278806367242286
-21.0455327402076
-19.7903952870449
-16.44439714767391
-15.065187955285484
-13.047440200305518
-9.306886351668021
-8.348584438828768
-2.320278109458025
-0.9713062096952375
4.924589735430624
5.4396229896663035
8.343134531887296
9.1226170920852
10.883895665776656
13.357695040915024
15.26480099759473
19.30345298892605
19.62521668443662
19.337602793311298
21.706635186081083
20.739674100264292
22.34353078540427
23.926791241330502
25.174456712806236
24.28735072371356
24.0459429855172
24.77741693371679
23.069009866594673
25.155124519327327
26.20621984196309
25.83353195140842
24.213319723977964
25.4930315226553
25.14673860751809
25.25253222992069
24.312993216265646
25.4815018657089
25.596460223333956
24.05347507265079
23.39601862709247
23.2663944483293
24.056510138460133
21.10955757232239
20.618325798122786
19.538843983747384
20.905476019062885
17.62461766377678
20.307263329419364
19.412505701151794
17.648830138729718
17.858150787346332
15.928453567085315
15.145910127414787
15.842921994111514
14.737880330534233
13.660571890010742
11.275331639739493
10.954273011151772
11.14289406585783
9.004524596614392
8.63695122624941
9.034984162282084
6.499718792163207
3.5291387052503196
5.660811364035664
2.8166085626886956
4.231074111787151
1.9278451343331466
1.6061282021317504
0.6011972831260682
0.2326434532581404
-1.1774023519608978
-2.385429034853217
-4.100945107857549
-4.280884727058566
-5.94975695919527
-7.503105058103846
-8.56988223220437
-9.042578058289907
-12.049831075862652
-12.463538551901454
-13.68418728888636
-13.810962338251393
-15.103724999593533
-15.074346695218612
-16.847943872994136
-18.111960860226517
-19.878589094437537
-20.711532803525923
-21.17505644656757
-23.0152611654184
-24.423234835284457
-25.372248056997993
-25.766447601058367
-26.7792747817661
-28.043489549246807
-29.46990693128017
-28.937349117151292
-30.72651845856802
-31.411499014050015
-31.89738727218949
-33.42667210498658
-34.06819884521845
-33.52485813660933
-35.44411816310842
-36.03409692435774
-37.94116168010801
-38.08252588255679
-38.293419628787895
-37.59793256017377
-35.59432914414282
-35.41232688470125
-35.03204477464205
-36.65627670180081
-33.608410580647124
-33.54770637306879
-31.421335020473094
-26.88103318283418
-24.742153881787676
-21.332168760245967
-21.60324902949593
-19.204835490258514
-15.689716354357323
-13.450267197446015
-9.912490260293918
-8.27951044529299
-7.251647362004526
-0.8973644397351456
3.9812161475891616
5.538101094257053
7.069309702749928
10.383682145945137
11.769276781222338
12.956509675645924
15.57418506536614
17.348096289442626
17.212645006413045
19.216428908552974
20.968559545581243
20.945733755805858
20.395138842533502
22.34674457889527
25.019682237327785
24.692194211596544
24.143056919714326
25.916059328972224
23.962722209175695
27.127159341922184
27.407683699220016
25.55273268286812
27.62316979783594
25.619357927873715
27.520889261842523
28.339175282556802
26.072486644593788
26.556807615111808
24.8198459581375
25.02717472873655
26.898886273764457
24.484461732880504
26.321072633378332
24.81239194600029
24.57968271002374
23.75030181471404
23.455168648728648
22.172537418678488
21.620451826582823
21.081425632141144
19.834996951898425
21.77595661765357
19.87044926420349
19.484230844067778
19.946292307488427
17.21762967840809
16.2054519425374
17.00355810751216
14.804937942700317
15.488734070003716
15.745789063065208
14.410264190241199
12.979029077188272
12.19860728074066
11.102335064991612
11.502333835601922
9.214963709342866
9.960053285293908
5.828964543844938
7.401361698649251
6.420312094464366
4.182106331212342
2.274579261024546
2.349863103217108
1.0705779488123723
-0.0023019787654244106
-1.2741026752037101
-1.863422828301956
-3.3579670885891426
-2.3056055389866947
-5.297449844379471
-7.287119232598058
-7.996675664699155
-9.221634876475953
-10.824308475359372
-11.414748358869659
-12.284310173518032
-13.11625521383298
-15.411499258090652
-15.327513962437845
-17.25123110625028
-18.72374378584228
-20.23857768761595
-21.65336314384954
-22.262941901345272
-23.297655986209357
-24.47056218496181
-25.491408041444227
-28.15026119610802
-28.147868252001036
-29.959875529009516
-29.30639646279767
-31.51230327812477
-32.57060195768377
-33.41108203961709
-32.77435713743094
-32.04229356083069
-33.65327571928131
-34.43008275834684
-35.085166833797004
-33.294127187612816
-30.167379052519664
-28.51431378002402
-26.39039555570918
-23.82521221938127
-21.067900879648185
-19.03278978369918
-17.09640026720565
-13.32336863180713
-11.806778920862126
-7.432845199939374
-4.261407714394051
-0.9507085260830699
2.877809630464021
4.987955000293104
8.109104412547218
10.67170914499482
12.037046662526123
13.387240309804382
15.12992902605773
14.953267089049907
16.369867378768394
17.01947267350154
18.554377615970054
17.001154917134073
20.46285749102088
20.895133375826493
23.074941737434028
22.118137690240214
22.338133022630377
22.24722076644157
24.081333077357584
22.771255163306737
21.932445076698826
22.96152977372316
24.479480100489308
21.79200424818323
20.9170695492937
22.846811303018615
21.08872086276456
22.683108036424734
22.993363458836257
19.295884862072015
20.008189078999592
20.461891726904366
22.309160205780504
20.19069139335369
20.73505600811925
19.504522841128956
19.899841267744435
17.385841823217753
17.92102930841948
17.842419044198472
16.79233470415957
15.236603209892095
15.440262362133321
14.396950404106006
14.798045581892392
13.493401010381097
12.663749237990277
12.141886867639286
12.397512205059952
9.463682085775933
10.641727335205287
8.004167402952984
10.067784802253952
6.1695379509799
5.004824059859679
5.762781777703749
3.9857578369445332
3.27015481896265
2.5648666493013446
1.196514240729509
0.2006719755085691
0.1992525941648763
-1.6587239389615807
-3.7030125576342607
-3.207514450777725
-4.58280059176498
-5.84090146055872
-7.229815781906904
-7.8487451058836655
-9.88314361771756
-11.239488048928727
-12.327603631615352
-13.336795841630803
-15.032225217593927
-15.794021489737213
-16.89627175358312
-18.020657817154856
-19.485447933725656
-21.35650451930347
-22.860372542162622
-23.32122682474404
-24.311818598015737
-26.575266109901282
-26.348983667952197
-28.5924957303941
-28.638604778894948
-30.439624864410643
-29.817269753670836
-31.390261141155356
-32.980524772013325
-32.94005586350684
-31.742135391279326
-31.738429087065175
-34.2503213357619
-30.45141557927489
-29.716616062527645
-27.754552306051213
-25.060095221951578
-22.800665410853767
-21.016397580877246
-19.78144170860358
-15.858407301447333
-13.25164075659409
-11.086189270728305
-9.269086124950631
-4.691154609860113
-1.962928582598306
3.556961705653162
5.67120954927453
8.813103383493088
12.046259932872777
13.290852513559296
14.149547772585182
14.804045430389985
17.84517959638101
19.342737264396998
17.656425264582527
19.43616547397159
22.418272992854728
22.613617500673108
25.211423896740403
25.060118546200478
22.899421078193757
24.91018379237786
24.583970109173084
27.246930022228984
26.556340309437804
26.35464739629799
27.330786893746968
25.09492653653833
25.579867948340294
26.069515903161957
24.89073884278587
24.883042546899546
26.120080583666162
25.06616864874638
25.67031199380693
25.025298895864154
23.30182722130602
23.440291906718173
21.759765015618367
24.256163505580083
24.076956863897998
20.630101429787725
20.60464046700448
22.36572285505021
19.973703288236933
19.07382174646976
20.92241003877172
17.99325336209685
17.16855909435909
16.672992101830904
16.61099303874471
17.17706728220396
17.520124446600313
15.467110868947191
17.27529832722172
13.649187574288176
12.584224391262442
11.389899091930381
11.761456393115195
10.39064397342215
9.589134644346279
8.960029855916737
9.394513337177637
6.34820051959434
7.317465629331067
5.919452507585931
5.651581257324689
2.5663164780586025
2.9661863811159144
0.9184446950712419
1.12067420606349
-1.5577633486420641
-1.7312741277927577
-3.233258985437555
-2.3372127909695686
-5.9276733007538045
-5.191271750020354
-6.001271803274809
-6.545240149258884
-8.539442679930062
-9.62042352674765
-9.18910218968881
-11.569136726613449
-12.827636342677017
-14.342738367867423
-14.63091369200009
-15.990921739343708
-16.963764284729812
-19.05651427679908
-20.448435199203697
-21.149629606877298
-22.106913519979326
-23.200377515880195
-24.49236284681352
-25.62697333014095
-25.228858342334732
-28.103306084610214
-29.367822871109087
-29.251878410187416
-31.26606937890659
-31.516403639137984
-31.59585801475556
-33.004311943487814
-33.21891055129986
-33.739074117528496
-35.00488422420275
-36.219110645801045
-35.37425624227248
-35.99564587527913
-35.64423043900392
-36.07104070508013
-35.129498393274815
-33.40882475470917
-28.98020858210853
-27.78841142607657
-25.291561656949675
-22.374454600937042
-20.730679905431728
-18.306789314682234
-15.633717709657406
-13.050981513819625
-9.91646536680934
-6.987949255751034
-1.3887665398980362
3.1665610625071228
6.733030416519447
8.987483685092142
10.550127328434348
11.78736760527424
14.423903585127583
15.626991503146858
16.41173323824572
21.69645928787577
22.095908953014515
22.764207136491045
23.70625452924906
23.433108225734443
22.25873762609464
25.62763294333469
23.137785693352487
23.034522931116697
22.860088228125882
24.812541756980508
22.544314418478997
22.680005774800456
22.97559504896684
21.279557960145247
21.42807925015918
22.745829531102277
20.5056897318856
20.885445199924966
19.289204919513683
19.866350592107025
18.236789878700165
17.85414908359734
15.102916927928254
17.37204341121216
16.058369537854773
17.631250169654564
14.528266817216458
15.880849762878045
14.0155178942466
13.55426675701562
12.324072217600412
11.914230898104233
10.88974327586779
10.978727136993014
8.654294932554683
9.118451691614077
6.901929606575705
8.807591554064508
6.441548291310692
5.14101703928659
5.441150206543661
3.8968703091831474
2.4226692956152043
1.3699787975466273
-0.3393030259764946
-0.8754233062493739
-2.8021324181045895
-2.5406031299505103
-4.299212070649372
-4.42624880907564
-6.578055502861442
-6.699965136900928
-8.230376048913397
-10.187794990602265
-11.255413845662435
-12.025414035369343
-13.375692529609777
-14.184678632659876
-15.922032323903975
-16.668174655486894
-18.574532102814935
-19.62261367786929
-21.61639983557507
-22.357326529412184
-23.87497300979422
-25.831945950170688
-27.133303366543068
-28.10463795848234
-26.998053711221413
-29.578143593377554
-29.894099966609183
-31.468244657101472
-30.452833261011346
-31.62589564723393
-33.104467953080444
-33.18149688768049
-34.551395980384406
-32.763135020632056
-34.72486696161954
-35.43465843932227
-32.49612751985138
-32.11509193039848
-30.492182347358593
-24.994057559224892
-23.69913974525679
-21.328772870899066
-18.14242735910909
-18.170217747687968
-14.69808790466443
-9.812602746053038
-8.714540313789536
-5.125838272232662
-1.9902597746549977
2.121783359663207
5.840243575023111
7.161252032090948
10.199560613074938
11.285209934931043
11.82989874000647
13.774509164225798
14.734311496820055
12.397411718658283
18.509580361195162
21.417825769180382
21.416939590230662
24.199588728639757
23.18102650080381
23.322965060486958
23.811808655086544
24.04918392870453
25.871195437496215
25.306815828994527
24.973269164226373
24.223157680808743
25.000534039108434
25.71932559949984
26.70765807607405
25.12549211689201
25.057220665468922
24.232856349839906
25.17685669945665
25.242679326777584
24.98608592874389
26.860052095059753
23.671073490280946
23.394099104846173
22.52703473884695
21.754550636958854
20.630587734594823
23.142585182398644
19.896068160721022
18.850150342191444
20.10366552979234
17.355062843490913
16.640940241707078
17.374636873748106
16.30571017516487
16.517250383914163
14.041572215793279
14.036005819736076
13.142128544008692
11.361017768787669
13.375453308182893
11.040652917870641
8.50896647580597
7.645741723674811
6.423061282172317
7.299796719489455
4.7515023948809585
4.777045918086029
4.041347187210819
2.040134475671776
1.8078290786511209
1.9431033818653245
0.38695713657683656
0.37954975123163087
-2.069017495813654
-3.5326889843912967
-4.338242517935276
-5.708295949022394
-6.921033113352714
-8.795919345405851
-9.455466945288306
-10.416290093575881
-12.55191410968909
-13.655327153610695
