value
-5.948459259627155
-5.396272875725014
-4.807313093685685
-4.237028174777266
-3.7396034920752537
-3.2834608341218066
-2.750318405762724
-2.2813903246045717
-1.7248701757936427
-1.1512624659030841
-0.7382707501746836
-0.324612131784921
0.22909311289490772
0.8378150330188078
1.4490996167910544
1.9164038007649853
2.263007138904816
2.635865217377025
3.026317407609525
3.3646537585175604
3.637827740082332
3.8696309708206056
4.095491086286158
4.260163245754919
4.465257437136525
4.605945241237039
4.646427748453026
4.666680167138085
4.6167400770585845
4.561621891487933
4.495363472467444
4.4080447976867525
4.281966936665523
4.134503859570788
3.993072624679125
3.770127881946008
3.5069405500561945
3.2037287052280994
2.9105241296249487
2.5383610256986002
2.1224700264046823
1.7274438647866843
1.2840747963810797
0.8362534272392944
0.30792397324473647
-0.28100665023128013
-0.8885276681940074
-1.598496625104842
-2.133697714955553
-2.6946241950808854
-3.1858317905103823
-3.6305439287628762
-4.153160884150284
-4.655754435640718
-5.127427732702131
-5.600324705633507
-6.055472314268798
-6.342386849894001
-6.704092350185452
-7.101911281049635
-7.439746672720236
-7.7394095956837
-8.041124843770534
-8.3058692253015
-8.597937042795365
-8.829132772049993
-9.084266848967676
-9.267355924403256
-9.369201025131888
-9.457861236072379
-9.520269873617428
-9.583157413786306
-9.59689114377543
-9.558509855981624
-9.410426292700654
-9.233760745226006
-9.085941085135095
-8.93357346519465
-8.735950212079311
-8.474970257528222
-8.16222747017362
-7.7140718123530485
-7.3540699537331005
-7.009377325598797
-6.701849991314502
-6.255329517898817
-5.787967444509174
-5.3285530396970735
-4.871860519950724
-4.370205688655671
-3.938333551734268
-3.6134050876458956
-3.0624558210754884
-2.5987643495381096
-2.163251555871694
-1.6617116477321119
-1.2302808665329539
-0.9018610181963045
-0.5564311679379382
-0.21442909633195784
0.08756087071749599
0.2783228596425787
0.4638600313555385
0.6528380222568378
0.8095262540512899
0.9313417745048225
1.0076386575499299
0.9988720927081898
0.9194469673330097
0.8327668359539353
0.755510929988025
0.6441449983588866
0.4763280296365272
0.2663766775669683
-0.0902793047488914
-0.4402532315180557
-0.7424639173387626
-1.0792284746614687
-1.4887123000388796
-1.948061538564169
-2.3765958705587518
-2.7903928374610465
-3.2907565685631917
-3.7908392693928636
-4.29480186058047
-4.793535360334019
-5.326794034381085
-5.951752779097863
-6.573464658755246
-7.218452423152308
-7.669696050481826
-8.069766506467362
-8.48896527460518
-8.874197982410921
-9.216368693918366
-9.449107181335192
-9.719026750818317
-9.9784584792972
-10.242362612074935
-10.48475796065373
-10.698436646702655
-10.852635448216061
-10.933792705661244
-10.957081684592891
-10.899884172052372
-10.894227918386889
-10.878447004960048
-10.682179348061307
-10.495370519658108
-10.312683571691894
-10.115045378638634
-9.905188925979404
-9.562926813942319
-9.23887714980416
-8.949349042711132
-8.624892170796521
-8.292486711775242
-7.925419422994884
-7.36211947682071
-6.891703536329867
-6.314726780217538
-5.7338070738288085
-5.063247535518203
-4.553465928056761
-4.112939431130458
-3.643367070938584
-3.1036475887789834
-2.5807460663741626
-2.116791058955969
-1.5997097849308366
-1.0741056723048705
-0.6418626300225508
-0.20456023905494494
0.3154373023262477
0.7352059958355858
1.0486389445468118
1.2920383180396982
1.5064456435692337
1.6943995769433806
1.924660748155496
2.0748816799347343
2.082592112457202
2.289778310961885
2.397627168488534
2.483008048150772
2.500135711625262
2.365080254239657
2.27530358216665
2.1699804124239157
2.093136017457302
1.9337311208321506
1.6022961069474773
1.2469318334050739
0.9650086847335267
0.6413945813882087
0.2069645802891526
-0.19913926852281114
-0.6088247036494919
-1.0232940103214507
-1.4562334745164536
-1.9535385753431769
-2.507983454903459
-3.0777125367202998
-3.680524587126185
-4.164835758284425
-4.344377007955684
-4.83184256390581
-5.338425196301211
-5.710368626906397
-6.034144603626489
-6.373431702080408
-6.6908225445939395
-6.899458565585246
-7.141189324781489
-7.373011781945652
-7.6475056068848755
-7.919723386363475
-8.006251409016976
-8.178100003036832
-8.21579670926137
-8.209450315038383
-8.168591358847836
-8.129555760528364
-8.081826877580607
-7.933613257147603
-7.770938855676323
-7.596281015805292
-7.286510557137274
-6.9885466743525475
-6.668371059458052
-6.363373275301014
-5.9914108755356645
-5.607038450460539
-5.284052846888061
-4.876536157732409
-4.411567206327523
-3.945201105475323
-3.439568326180336
-3.1949610415378946
-2.7994261118060217
-2.2859395792815898
-1.7786611405842527
-1.2891233483860955
-0.8047116264480716
-0.29883726758758267
0.12309231287410909
0.541987467045644
1.0196148396668538
1.4539832975489175
1.842561819967975
2.140372741096455
2.4508865347875752
2.790431426477398
3.0700387595693326
3.291969953838832
3.4928555456101473
3.6647454310432095
3.816285417962917
3.8980242047699405
3.9619428236816434
3.9419477790336876
3.9077016883252442
3.8223610971696202
3.788617394035843
3.7976395748743093
3.6156822584917854
3.4941443341334293
3.2950314489397217
3.0346366895860855
2.7346301853496557
2.425251098535509
2.0853532765981493
1.7258852128017412
1.3627665388460244
0.9403173885862193
0.4642151711755413
-0.02689187769933934
-0.5422292489092542
-1.0368118130824961
-1.5518474618430766
-2.1268223246914335
-2.692232258505619
-3.249750119536076
-3.7619129160271663
-4.220511638198389
-4.749009287763007
-5.212073017550023
-5.642870748235632
-6.040479997670461
-6.40978151709498
-6.740883016921029
-7.069090951954144
-7.384554242638981
-7.654400684573985
-7.894295320346986
-8.077627233746059
-8.226617723206404
-8.442283852744918
-8.565075295007325
-8.611000962656675
-8.6071877113539
-8.51601160032985
-8.438020370008003
-8.343447591526987
-8.193943541365
-8.022878254929337
-7.848384695111746
-7.597060600455963
-7.3124312967327825
-7.0138028807791
-6.69650665797853
-6.385418597847552
-6.0439640842797075
-5.639736987111423
-5.2165236587265165
-4.717863464883292
-4.269061936010596
-3.7890922284517816
-3.246132634925935
-2.7721564892762403
-2.3113488917929392
-1.8576471439958753
-1.4007172424708272
-0.9401529484485682
-0.47101305751220435
0.0026909846519289765
0.4702152832341017
0.9087982201522564
1.2879688498138024
1.7040965482869985
2.043667313698926
2.3684159899657384
2.6256169738475394
2.8747025935739274
3.0757556014603495
3.270187431739484
3.4863397974354418
3.6119064842851847
3.7364691138428454
3.832228738955601
3.9302521935581693
3.9674027549903164
3.9710221810869326
4.00034445432493
4.088610779060908
4.004235099370341
3.92499266186088
3.8349698193457864
3.6957639216095495
3.50722479961685
3.273951302409077
2.9034874822386403
2.5535319080345436
2.248058681059673
1.9364646662142708
1.555781982682459
1.1320443620588954
0.7013107481684984
0.27531658680230264
-0.24145441169971657
-0.7366326122249317
-1.1906135511159728
-1.70027345611289
-2.1241326430646112
-2.563389934584677
-3.0451702120230246
-3.49405382532242
-3.87025367651801
-4.324479822128716
-4.778776487387372
-5.169963830860346
-5.5152416779613365
-5.872251216150586
-6.23071443610442
-6.60969255950069
-6.8574440685055675
-7.095072372187194
-7.43410411972928
-7.663395156636409
-7.810468700293762
-7.977697535288735
-8.131519707454418
-8.17144274313042
-8.167679662108556
-8.100817640275917
-7.969923267255219
-7.830980278444415
-7.7175250121417465
-7.534977394635891
-7.310805960720484
-7.100951940317267
-6.919449975303226
-6.6252300976687994
-6.315161433665645
-5.957210899464188
-5.567241707321369
-5.229022561758847
-4.8967070414060565
-4.447726145624586
-3.9948572056214604
-3.5935078376169263
-3.1483969942177032
-2.655219425959399
-2.146129656835126
-1.7099917124536268
-1.2239014213009425
-0.7506538733974815
-0.22006483347495642
0.2618957608705382
0.734929267748365
1.2227286058107014
1.7326320218250308
2.2582784907484026
2.7102260101663105
3.152402449380691
3.555833451669561
3.9250224098069237
4.272064261490594
4.550256762815392
4.814055794342987
5.048580944834236
5.267717015831642
5.449287557066768
5.66513294971602
5.855434085634263
5.983584695341091
6.0878226703623
6.153078914424616
6.19151647467345
6.2627408550829555
6.274176097295468
6.23814856110572
6.181552846653989
6.113715390967732
6.003416869018646
5.892098780952423
5.762186831103395
5.603935469507138
5.421196085241397
5.223863184317712
4.958341321595224
4.66589459389078
4.3257446256504615
3.951376180658518
3.563098408593506
3.137749838822443
2.698487664927137
2.242998252655792
1.7523646738756118
1.271277998766841
0.8036464162881353
0.3100897869249317
-0.16727047490701047
-0.6506532702698473
-1.134459118645644
-1.6143613475220808
-2.1276167511110637
-2.6394280635950427
-3.14066780262294
-3.6098682029018065
-3.894803675006393
-4.200070471158692
-4.625024991780831
-5.0103033142444415
-5.314176353535399
-5.671999614743513
-5.95396756620195
-6.26139993846919
-6.5026576962921565
-6.748459411414292
-7.036028632570913
-7.230389245626425
-7.392484717186523
-7.550904574626751
-7.674049020107649
-7.755938446374243
-7.76888900745143
-7.7705017317181
-7.756218198491922
-7.612374628123261
-7.43447356757673
-7.213188381904682
-7.014294669814913
-6.822888378466095
-6.572673332921582
-6.267794209838872
-5.948929400418962
-5.620675237333106
-5.251104477526367
-4.803847342885672
-4.340054859708981
-3.8956770981353452
-3.4452330022774302
-3.0597399761342388
-2.8156332819503267
-2.3739169319314475
-1.8379418678304522
-1.416531150675926
-0.9116637848427749
-0.42886744108891434
0.03815121765926711
0.5174762542048946
0.9623225193555053
1.5132002752578428
1.992843869769992
2.436557412120691
2.8927550299808504
3.3517323815412228
3.8090392836684352
4.247860278564634
4.743733392304988
5.243985061761971
5.583795095968139
5.818904752308557
6.053338639322931
6.296573557636082
6.529338095523771
6.729354062354485
6.868818697139191
6.970640977388317
7.106335823832394
7.225985818364129
7.250150150295798
7.241118539577077
7.281645734456395
7.293746614475337
7.24701647523563
7.214595298416414
7.146378667227634
6.9475844962894495
6.8210692096845795
6.667038633532937
6.462581550336355
6.27667115115492
6.077487224142643
5.79646161441139
5.504647664449951
5.176475107786106
4.814364349489384
4.456845808239431
4.083210645445875
3.6887837661034295
3.290916367425449
2.783504268568543
2.21063344096313
1.743541233298903
1.2844206810841006
0.8128778713052374
0.35710105466608993
-0.11095851371223618
-0.5563622878130723
-1.0340668144513845
-1.5222705208875147
-1.966165934894055
-2.4185336027193736
-2.819944057681833
-3.223930515034016
-3.674326797444601
-4.034176498011467
-4.384961163239503
-4.726821752972404
-5.0534236681414715
-5.356168697713028
-5.638720687887992
-5.835093276117343
-6.072811655730712
-6.238934493869631
-6.397272835641284
-6.5228615315395
-6.658144357736727
-6.762459857904408
-6.811355433975774
-6.759377254351245
-6.701418537709218
-6.660244027415248
-6.641293190027641
-6.5394894772916405
-6.381503590873652
-6.2567876894794985
-6.094067552982997
-5.722955743441378
-5.392631817721912
-5.113601462530436
-4.781242442472381
-4.421731707609473
-4.0090989176001495
-3.593750008939995
-3.230432490953196
-2.816502143989382
-2.406441563944761
-1.93452455014134
-1.4745576682967374
-1.040938357354205
-0.6021892740717939
-0.14209073771504158
0.29920129989394717
0.8045027520153339
1.1911456665861155
1.6262709733343437
2.0749255001157705
2.4734224185680618
2.874832213242915
3.3410071410769024
3.7874528803473764
4.2186312284328285
4.61124498000989
4.964305964653528
5.360437398098685
5.854707660410656
6.305067282784631
6.700437121276398
7.045078232367871
7.356570358518506
7.570855965203973
7.7472377208937075
8.002873159310075
8.215137958183234
8.371336141284807
8.536981721829067
8.650816941681533
8.79673573498906
8.91840229067345
8.983311393685101
9.000698380501365
8.99144989100942
8.954967561787688
8.937384306166075
8.85114475124128
8.763195016267929
8.65814185352985
8.470677537416607
8.288449363924085
8.080686572180177
7.861479769085274
7.628963924685763
7.385010208603116
7.1160567474057155
6.802414553215701
6.450809952446513
6.084612828328006
5.677198543844417
5.205866116266667
4.6955168557241045
4.193339705068609
3.749404568266283
3.3941854284074284
3.0064070752461385
2.5163551515133276
2.1233361816852216
1.6424396055361448
1.206030436276673
0.6797932705464634
0.18104394453078318
-0.3183116118126062
-0.8853138149310953
-1.430096815769591
-1.9641397186869134
-2.45804522644029
-2.9212994285048017
-3.356481576743488
-3.7756317301121327
-4.170950335571572
-4.536084891162514
-4.87668847359802
-5.17063695094645
-5.4245915447039925
-5.672863928662228
-5.9163192116525956
-6.136765080845941
-6.346794903841107
-6.5124017796177
-6.631449547162727
-6.714236072242781
-6.749847956145932
-6.734648380271428
-6.704507309979927
-6.6549391254685855
-6.57299477277822
-6.517458596177343
-6.487185359231282
-6.302483826739413
-6.177719252898525
-5.92309578479192
-5.684169113625939
-5.338317787343953
-4.986615056426714
-4.67928811169308
-4.308232605827484
-3.858864391269205
-3.3816998767112434
-2.9206496926189076
-2.4642483546576415
-2.01126934555607
-1.5571928221493585
-1.069944907397802
-0.6062044023016252
-0.15396194073557765
0.3386864026467919
0.7794685836472354
1.213233083610526
1.64480803425366
2.123959540516538
2.6117615083535166
3.0582541785917408
3.5311428915393517
3.9635992832722993
4.391660142004278
4.799736630318333
5.180073263542898
5.544726594695049
5.887945719171144
6.2479449577605255
6.589634974259329
6.827578636046146
7.087920788726754
7.2794213471102
7.450367303238399
7.56064150992853
7.650353972672112
7.784846838259357
7.864056435675368
7.893408184005753
7.914877980498852
7.933002328906639
7.912170218476242
7.894715946168679
7.839301575368003
7.745179136391687
7.597582633919469
7.461563635959499
7.278565702120887
7.057161551860724
6.855162917231811
6.600688843001925
6.362636206365323
6.029072521089507
5.707486902128485
5.381467230013101
5.0412098548213455
4.6435829428423485
4.186895065581179
3.7402881780863093
3.338657457522294
2.90801947494669
2.425292732910003
1.885368230207532
1.407630528935883
0.9672188971258061
0.5609755920053908
0.07470444804320316
-0.41962410915577847
-0.8564066864107738
-1.3341078356320226
-1.7957390811395517
-2.210805148620577
-2.682321259335221
-3.129384046229979
-3.5447320469118426
-3.9907241012848598
-4.420734273796511
-4.7631468143563005
-5.086680921651352
-5.37216291482937
-5.649215182743014
-5.910642344281198
-6.145350112524673
-6.359967668369095
-6.546361960381647
-6.721357869476691
-6.805493338540007
-6.952981439267627
-7.0857646769797045
-7.149421442902962
-7.16011734353138
-7.121568327538327
-7.070834746980184
-7.0263123217490016
-6.90358751839916
-6.765779636301513
-6.537129100192188
-6.339567111853872
-6.214151798395739
-5.9871067893989744
-5.684559624433661
-5.35600914635097
-5.019194417655778
-4.607159068681965
-4.259501374516331
-3.842075183264802
-3.403728405963458
-2.9177481417226527
-2.4509366705440616
-2.0100006058952737
-1.5887824501658787
-1.1571342752699778
-0.721083050637372
-0.3071233083579966
0.1360592239217131
0.5816283548247696
1.0445271977148285
1.531988318508497
1.9951711142590978
2.385602567508012
2.835277777553394
3.3321393400628327
3.821139194479049
4.2874192369798925
4.733039151028276
5.150092899123961
5.6281723931235765
6.012685240664398
6.3413402088010065
6.629667274877232
6.956136903155016
7.248555537242623
7.493643003219302
7.750732725772148
7.915099191068072
8.120704168662744
8.246135763117767
8.36718479127453
8.471788340746409
8.542783836737458
8.5306140041266
8.503783960781018
8.505597653887149
8.519710704828102
8.467407278345878
8.389227835723036
8.330104225052866
8.310182663518404
8.200955426515554
8.035049521359953
7.8184165727693
7.575090193552754
7.392804163410081
7.131527772073511
6.821857167798638
6.456207102257611
6.080637916780747
5.700768132950326
5.341019488890393
4.893951254098083
4.448044572081253
4.0363789802714924
3.6381649624780468
3.1976710764203498
2.7236293859099123
2.291651843397131
1.8243371935854398
1.3223867490319454
0.8552733189793772
0.3522923430780099
-0.14766056298440125
-0.6561478830142128
-1.1537255007185645
-1.6336065693636173
-2.0556258152490416
-2.4570455111095764
-2.8829471601777508
-3.271125371063449
-3.635953731954409
-3.9737065569197276
-4.364825355341206
-4.738760739958265
-5.007294809716007
-5.2098453425684745
-5.38632603393196
-5.607789680934729
-5.828061224448304
-5.925471603441542
-5.917713867020394
-5.938511968779456
-5.929907256090166
-5.920906515262052
-5.899855702619379
-5.8406559859298515
-5.733591638358324
-5.557769869564468
-5.3820317762628695
-5.160198910320921
-4.918732549471433
-4.6477718176560545
-4.312896663360436
-3.9738510784175647
-3.6076236430019244
-3.15733235137161
-2.7207708123461765
-2.248466889453107
-1.7453857084022923
-1.2390612263330267
-0.7677954607186294
-0.2953462285276027
0.17983711626633483
0.6503927873022354
1.1327973785160679
1.6192444216166564
2.118822508547924
2.5960452642034686
3.0601811844673645
3.526752453791802
3.981439264880085
4.47439548701703
4.93922680351696
5.2850345762879956
5.675458995294117
6.064017789591499
6.4489559390293385
6.858000651759491
7.269632655825553
7.687585528280917
8.079434645734121
8.457175778133658
8.802252179613633
9.12314698514738
9.419647990064846
9.693188223155282
9.944516257538261
10.174681149282502
10.326636089614963
10.461760106921263
10.62511846504654
10.724874353800852
10.799181515735759
10.87684593058998
10.935166790313415
11.003671195465209
11.066549892105908
11.114324536276147
11.09213437901445
11.053761146943947
10.99200253574231
10.900643409815853
10.77124964597078
10.62318144672716
10.442318416673881
10.314633300727106
10.128753727891564
9.901998296070637
9.661355601962832
9.410335859597357
9.17995523001843
8.88252369874203
8.536084695398728
8.136782775932117
7.74989260199085
7.350703943189654
6.919874973565403
6.501443642084271
6.090726828403394
5.686028756133834
5.252895787096713
4.8507016887909655
4.485576999065888
4.102502949795515
3.7440775079618467
3.4451896645174553
3.002222341476701
2.5330030933436674
2.1766491296070765
1.7764463382183127
1.2783226017230076
0.7517385902453434
0.25175816596730105
-0.20302436838975096
-0.6493269308096871
-1.1141373672828492
-1.592880208258456
-2.0793178842609605
-2.599729679705369
-3.1309297373935023
-3.627529967537153
-4.078204470298706
-4.381711714555951
-4.725375944499251
-5.1049155350777955
-5.391229320474522
-5.622036974528715
-5.809356880107062
-6.060865032193608
-6.229653733895375
-6.357747235835401
-6.479671454285309
-6.520102364261378
-6.5294812159245454
-6.582897509146756
-6.597392739616849
-6.594395812507018
-6.549763046923946
-6.598391638457718
-6.506171241799828
-6.3276620265483094
-6.1797066608480025
-6.061792503048024
-5.812105326269963
-5.463741428082439
-5.124304153229289
-4.763223683862058
-4.434352407219507
-4.038838124715682
-3.575919856939986
-3.099468287807403
-2.581993152041137
-2.081595376788869
-1.5423694007200188
-1.022595448464815
-0.5823370760359778
-0.17990813391334404
0.44867258163867507
0.962167505008736
1.378279041140837
1.7677658466008421
2.2585711091803717
2.7621074274447923
3.216698854647646
3.6724787167172197
4.072529056196125
4.432850673593226
4.908492526693679
5.425134335319624
5.882332571629935
6.3246006699832265
6.721742103609214
7.0714688917536455
7.421922859840701
7.71952310830025
7.972676080141904
8.20778586679392
8.357004384575012
8.531959095857173
8.639518496135384
8.80830099916132
8.93274964152597
8.97934162721802
9.033518085653958
9.081260501756095
9.11348420569098
9.124038878068824
9.107808210515808
9.05545684340567
8.960744985068233
8.741650653586106
8.482240585794498
8.378126740108106
8.246160011485644
8.075269324095325
7.92395563919216
7.7066205096528915
7.452951607321708
7.189359436020441
6.897325711105668
6.551367343106462
6.09477421346435
5.706418950501611
5.257834505137989
4.823208844318171
4.40217464114278
3.97955056431305
3.529859209905245
3.101976250657524
2.684359117861826
2.3036940449299967
1.922755870631377
1.6877278890361276
1.2838922285028975
0.8426021759175045
0.3911098564633487
-0.06344291501354904
-0.5250385250379435
-1.0337795433702952
-1.5226620946233507
-1.9755782444832992
-2.4205285293623917
-2.7826386297392416
-3.1342747166520963
-3.4751024955535743
-3.8260686872267087
-4.104175013034528
-4.349205862315687
-4.685070099584125
-4.9180700191423
-5.099723145006576
-5.237872513941425
-5.327472120856697
-5.362278367797882
-5.377476769680355
-5.402620846802325
-5.452697884109388
-5.385770258462243
-5.293829127099902
-5.212093111141221
-5.058344930115449
-4.858308057235387
-4.657740908103906
-4.48514566151863
-4.292762918516188
-4.154037556507754
-3.9603850167798975
-3.6335680276044102
-3.340284452514315
-2.9726885072541203
-2.5812919885341197
-2.137792550894389
-1.6443242466945962
-1.1037369782956186
-0.5426431982209149
-0.05805927139168552
0.4106227858773324
0.9011647564135609
1.3794488428091156
1.8384084780232992
2.2912312675179978
2.736806941642068
3.170279695104518
3.617349435514228
4.045275425741546
4.451477754302986
4.838874985262584
5.188911675650527
5.623352587230636
6.0574394916760195
6.485449139093954
6.850741724415312
7.228919997350961
7.606742002991912
7.961384427628969
8.31523096368623
8.726722043309653
9.06478734552682
9.366404046095637
9.66354361456036
9.937126462665926
10.14178277612303
10.347377193732825
10.512913887589095
10.682386664082397
10.828010023301609
10.888064807178274
10.935387824216532
11.021082157726688
11.049950319001347
11.08582806973023
11.073624684341755
11.022402303250658
10.943018902213309
10.832371320352854
10.731253389756079
10.594094971286125
10.457563803949602
10.308034620680047
10.101854380334627
9.90432149711877
9.66069129801307
9.39380983802275
9.070871119392704
8.716977469375282
8.378393129134555
8.012279429127922
7.622563862521516
7.211220400158629
6.750926147625656
6.284444725993897
5.865173218376821
5.427564403433005
4.945159836974157
4.4970837393460865
4.013763258031524
3.5705461094985633
3.122906270665239
2.613721581676654
2.171664718989763
1.6628421966258808
1.1057198070569685
0.576756611001621
0.014754935754245024
-0.4926282749122091
-0.9727298832948466
-1.4605069051342885
-1.9742933197086074
-2.3061180310120255
-2.6747186419250393
-3.05162765203674
-3.39098968694103
-3.6804191770970376
-3.993938506576919
-4.272638009217996
-4.538691882020254
-4.758027537922952
-4.935070800694701
-5.102376358116789
-5.201966390792415
-5.299570021168917
-5.369704685479067
-5.402010669103443
-5.411196253706598
-5.3660896481822435
-5.268389249838745
-5.200957805390702
-5.0906365210233435
-4.880965072861394
-4.683751120699035
-4.530707152005591
-4.316258458450945
-4.078368575399921
-3.764975793501292
-3.4078930425939205
-3.0315066283869188
-2.59884518713216
-2.1701198639233388
-1.6943764593123865
-1.2241922675036248
-0.6990951430636975
-0.2612723030129991
-0.0251722349691708
