value
-4.143818569658274
-3.6369775171163155
-3.114329366503996
-2.65744511326244
-2.0769770945987456
-1.423681334268438
-0.7751294351776497
-0.2092456534016679
0.36547944906111607
1.077232554141799
1.7372676491579355
2.4011361691226423
2.9933173163091813
3.6140006707963463
4.312576729446827
4.936197036897865
5.45697774108088
6.0674814821375715
6.657779267589958
7.2565717684951645
7.915365289322946
8.484430140056974
8.973032257602593
9.36968063717312
9.76879108312313
10.142108601209067
10.468827510643262
10.760510394023168
11.00643277216691
11.26674792176655
11.440113408972655
11.564330700200173
11.698239184490093
11.839811656740364
12.04340329529997
12.114591696442188
12.108968842871183
12.025656026054936
11.936722636549598
11.855112217675453
11.756547454810006
11.584626713088253
11.407131336601584
11.116452186527285
10.911655799388749
10.699621855926733
10.39824953541483
10.017349177407583
9.523115101746605
9.008339801554593
8.446735028883758
7.849560302498758
7.306479710089809
6.716665912848701
5.972646638040492
5.3153796136917615
4.708605187859742
4.142299967830356
3.601299466592317
2.9538113828916956
2.27098509586038
1.7520590135137428
1.2349645266328468
0.5461452065812086
-0.11160697531746223
-0.7007021613929029
-1.4022222013336532
-2.1437421045994065
-2.8590418450271318
-3.520463057256449
-4.170972134738474
-4.7344177157543
-5.362176669169875
-6.051098152184787
-6.672801391899695
-7.233000290595564
-7.691863059235944
-8.276156952505643
-8.941040483739998
-9.474683876900224
-9.903494490801092
-10.247686645901068
-10.531917128815111
-10.755626699123471
-10.900504918972928
-10.904055582621265
-11.013717427327725
-10.99863545503474
-10.946988020421172
-11.007347835643321
-11.127612936649514
-11.182912499108046
-11.103283266625587
-10.890198894691345
-10.696481750221572
-10.604473990195451
-10.338228112097699
-9.990792205900805
-9.702577255741572
-9.30324363413123
-8.87328999147631
-8.457409272616056
-8.005182084775075
-7.50011861451821
-6.946351368881263
-6.347989468786398
-5.720667935562347
-5.082382634455076
-4.551758026927862
-3.9830005406331397
-3.3228358829886147
-2.6352036195463886
-1.9589977585500082
-1.3520438614256742
-0.6955453884572962
-0.00528847432195621
0.628083944527806
1.2539430177658388
1.7380834862228765
2.245237605294307
2.711207022240536
3.1839566830147175
3.7165729540208527
4.218266590256401
4.677910500137049
5.014234076161206
5.289761567660767
5.500613040769974
5.684906745983314
5.813235008991757
5.938742841766728
6.068776407089349
6.1004864523749545
6.116943921815562
6.11528876976032
6.023936402752637
5.946124308806087
5.799634680668325
5.566995809871086
5.325444948529002
5.083479407648856
4.825399925117187
4.480781900582785
4.048458152117315
3.6348444226607883
3.2008478785365306
2.7264626429329035
2.1913071679607454
1.647493914097688
1.0679732069013659
0.4375663057125462
-0.23130398895524487
-0.9047591740758233
-1.5478543600288213
-2.2307814220651796
-2.942866430804496
-3.658081486398987
-4.4365926221129275
-5.116142909705654
-5.70989024785502
-6.348761016722136
-7.0182732699917265
-7.57094301695969
-8.01984168178085
-8.597674345020323
-9.090219836405831
-9.572144136032785
-10.03682865049085
-10.388714431359274
-10.630908256557348
-10.943291120322607
-11.206546808971781
-11.380535428820854
-11.531098912039896
-11.697723196253062
-11.722765016616611
-11.75857711655573
-11.793004442302482
-11.777023337380694
-11.696888049304201
-11.538988866094279
-11.385720134914457
-11.259876759192162
-11.044073768028635
-10.76873027218516
-10.454268367764772
-10.197846587742951
-9.807767015760652
-9.380438754702602
-8.958179267445656
-8.506761613613934
-7.944791394150422
-7.411186007195348
-6.797942724417272
-6.130973132954023
-5.536787994390875
-5.061723641178024
-4.4336658712138135
-3.7628907494369317
-3.119545700845135
-2.4703808553785405
-1.7995386121064425
-1.248697703970593
-0.6894191576239456
-0.1031102099315054
0.45855977511032636
1.0277745237197253
1.6495408950628445
2.160132540144962
2.7508048789122617
3.3773620629433325
3.9659036975058024
4.486364908575339
4.898880023835876
5.2828231811204365
5.665581908077337
6.030086943700026
6.359258629689587
6.623287424126925
6.864382797312038
7.031052461080649
7.211162085359916
7.37717397149713
7.538481948069944
7.581007483765753
7.598125594532715
7.615999244556234
7.577816203252636
7.496453572047177
7.398213145497084
7.277275004477449
7.059448730101218
6.794924939095796
6.576900616597867
6.321525298873551
5.983791797112572
5.708362788017133
5.353634186396633
4.940297283654924
4.434826177414601
3.8853040452373824
3.375081625439307
2.804458079812026
2.152108509480337
1.4691905096747968
0.8118638087793848
0.20022703368981706
-0.4108848431769886
-1.0602503389456006
-1.7034806506907285
-2.350762239726776
-3.0056802965351483
-3.6351179577902624
-4.236551753743831
-4.940894235748904
-5.594001962426677
-6.205017109258743
-6.8199806347463054
-7.4038691891511625
-7.989221943543066
-8.477301420703462
-8.913001906958506
-9.241700154003665
-9.731043284010534
-10.068042274321204
-10.325188471758825
-10.639869573200992
-10.971396767058213
-11.19421561322846
-11.440525285798575
-11.620660920675899
-11.634007546480017
-11.701067178873108
-11.693689662068174
-11.71487060355949
-11.603944982493232
-11.498635173730053
-11.256551780857166
-10.954390628042962
-10.667300224418318
-10.339122610846005
-9.961936112104917
-9.54016159025408
-9.157088708737241
-8.762654445221363
-8.301521506405305
-7.847454298140205
-7.323335944831419
-6.741177957127985
-6.20893049424565
-5.553347750390391
-4.9346050378823625
-4.30466045546841
-3.7299928457645977
-3.1045170869120016
-2.554758871980056
-1.898955752118988
-1.3349133515721137
-0.8004334540120766
-0.23083104128832407
0.401094014780129
0.9281188234447751
1.4808084059246283
2.0575387289079883
2.52333593055713
3.032660455376373
3.5652317710280146
4.099663842895257
4.5419609979457185
5.111130643750694
5.571463679062236
5.868377468198916
6.1534595542500785
6.49379869416378
6.764584629369747
6.988279641159356
7.285818218765772
7.549866149483458
7.755593201885227
7.924262904249265
8.07906252575566
8.161308334389394
8.210316432870266
8.239786101026217
8.320558384693301
8.319756080694017
8.218725206122265
8.087270289545252
7.916570430470872
7.728037944968246
7.527225722061925
7.327509926005173
7.1613325825985505
6.8551789257479525
6.568161379074581
6.304814672172599
5.9444967017901655
5.567814181524225
5.278377322547876
4.867673376926702
4.406989716997886
3.9788142288614576
3.438705001835044
2.8623783065214363
2.3218831252314986
1.7753871622638364
1.2351162929155992
0.6665739898598265
0.11124147928517694
-0.48100522802023565
-1.018085550003983
-1.5506576278785444
-2.1189094819952614
-2.671768288997809
-3.226286259897508
-3.800700797773946
-4.419575891309662
-4.995778109952528
-5.646230709341513
-6.2272672576539305
-6.8011658881245625
-7.270179900615081
-7.64109083469947
-8.069178702136783
-8.390550158270292
-8.7933072720124
-9.103771084467384
-9.309180319799335
-9.587645381643718
-9.832248377841267
-9.99821246533266
-10.157268351203864
-10.325084802395047
-10.396136190358796
-10.409197320155297
-10.424481239792097
-10.361073337037622
-10.190202006259915
-9.903222768418802
-9.699784118705628
-9.492147095701009
-9.227214041331358
-8.848895891874623
-8.51630351825273
-8.179685438183851
-7.779828516317699
-7.382626414729021
-6.946561476270469
-6.383378252913545
-5.818317811736317
-5.249753530784765
-4.672645374198067
-4.004995919745705
-3.367220826299432
-2.73148011299657
-2.253787412810732
-1.6772411683018695
-1.154155553838861
-0.6032676534600288
-0.09575205358049209
0.4009057957699275
0.9134379181856136
1.4377979476985383
1.9933294139428228
2.4769993137861706
2.9590915050042597
3.422418818822687
3.8284939422031243
4.238032218256682
4.6382796312415575
4.953163026143543
5.177706126663083
5.360049589848616
5.565498656282463
5.754464205661541
5.839671979977494
5.868144480987677
5.930581794808172
5.95867892089681
5.974058059206829
5.9465978585080075
5.845102950426609
5.754436790475165
5.552243924629039
5.470183546907975
5.25336274787024
5.007823429764541
4.757129075807864
4.4792336082113655
4.159674972888273
3.815157623384435
3.4146307846993906
2.9996454946970657
2.576628861780714
2.1099724873110683
1.6918322179874856
1.2016282297240948
0.691663520719417
0.16084873006760306
-0.3179285207531123
-0.7910387576281562
-1.3320464368767018
-1.8774279577898627
-2.5302097533767673
-3.1940540334128165
-3.829681713262689
-4.418012238175883
-4.9826961881175125
-5.5272268247131455
-6.001598894087695
-6.365661567102224
-6.6384386267391395
-7.058912915381696
-7.4444816220463395
-7.816987366223887
-8.17294791529257
-8.503231464049511
-8.820470260054034
-9.08681776823998
-9.252657042701731
-9.412265916372828
-9.52802933301179
-9.501850838321396
-9.507609746929559
-9.47763427544158
-9.389389241139463
-9.29686216960075
-9.153879022579398
-8.96192509365869
-8.744785961078517
-8.504917857051659
-8.272779347687637
-7.989096290902469
-7.726259630827088
-7.394984852658653
-7.008522263872909
-6.56657622443468
-6.065757498571192
-5.512610418391746
-4.94611456198499
-4.368932833679067
-3.747345238136554
-3.1763007344087035
-2.640870779165305
-2.3021165037188935
-1.7814772451963528
-1.168124802436489
-0.5761427438487162
-0.028963174211503316
0.5659248844798831
1.1827900541843346
1.7510747244900446
2.286622201457126
2.817333778875985
3.3569163286696386
3.7782179050664055
4.189785746571342
4.617886922152678
4.993488806157688
5.364784887354359
5.6593422060829
5.8859376425570575
6.0931307002868635
6.26842836695356
6.422572137872882
6.50606862656671
6.590194501211255
6.637855300630234
6.664948998121942
6.655171556529644
6.612215283180349
6.57857116399796
6.488228277949022
6.346218719461151
6.171360278541317
5.9113304800685995
5.692276008313476
5.465995267664831
5.187444431658037
4.852738967536797
4.514535980649068
4.204164593559765
3.8123570089793883
3.3498710411841297
2.8280716732398266
2.3235479127957475
1.878256795054678
1.2950851159772125
0.7209220666113652
0.23193697459445833
-0.3311916281349912
-0.9463113996980111
-1.5714828485796677
-2.164229188838077
-2.707403746610763
-3.291082342817622
-3.9000559442487126
-4.489377401644399
-4.887796488147426
-5.3514069925655825
-5.817835770920376
-6.214567776557954
-6.605298606089794
-6.882728636964354
-7.171726455532688
-7.43729932014934
-7.638667338938209
-7.790395080601159
-7.912083769306487
-8.03163213985092
-8.12309541752425
-8.159285572813221
-8.170725661938269
-8.134192772798993
-8.126887811603899
-8.018118540004957
-7.862821639553346
-7.6678464182388915
-7.373817656461745
-7.178760713910184
-6.829302837714938
-6.458850777778569
-6.130791217383769
-5.734933964799859
-5.29682527195087
-4.812688430239523
-4.3280046796563285
-3.809120725021046
-3.2534681302551274
-2.685060041710537
-2.0675904040095396
-1.4957770224177283
-1.0434174988758618
-0.45779285044296286
0.08370232392112742
0.6459669908126623
1.1551088582655626
1.6404246040617492
2.116795904212953
2.6217353383490325
3.0700676383119414
3.5030639369570835
3.98825042079233
4.393186643430886
4.766534169338724
5.111904014631434
5.401787109163424
5.662500437782152
5.911698621259286
6.162242052129136
6.35893411135717
6.471628041042241
6.5600900299575775
6.596416499874494
6.599278679484104
6.61541056676914
6.55862535433855
6.490652854606521
6.411867129643383
6.372419986560373
6.277961425518553
6.093208747802996
5.893832581124442
5.6686289531724325
5.364152665436198
5.066482116387406
4.7665678124835384
4.4167889283104165
4.023288774345561
3.567220927261158
3.129032931075704
2.6625044942987954
2.145715480811193
1.5948606573512427
1.0245137555931743
0.4120418740513237
-0.13844421167278428
-0.7125674747241296
-1.269424911659504
-1.7971652282255357
-2.376007418105389
-2.974747507604349
-3.5534241730314156
-4.071988670526522
-4.575436631726256
-4.97928127938525
-5.419349268031444
-5.833211565477868
-6.258534251458427
-6.614570265470884
-6.894653767824517
-7.11013481356862
-7.2931572931589885
-7.458566199399545
-7.580983327334165
-7.596359635834937
-7.588960757269233
-7.4827498421790635
-7.384457768759204
-7.239158673845707
-7.0672414924562394
-6.845527119085276
-6.5963424991331845
-6.2790698990375065
-5.906025504286291
-5.530453598246806
-5.113112744165877
-4.660994706275828
-4.140571772106442
-3.665078091904267
-3.141798065842131
-2.5457259707877045
-1.9683829553857715
-1.35074044287732
-0.6637230333632103
0.04216004250314227
0.6992317639283958
1.3630990923304596
1.9524688155553547
2.5553286854722193
3.2352271590996358
3.893370965889503
4.567103518530688
5.184756529102964
5.747783797735347
6.297737412814982
6.813654634142563
7.299521536888173
7.716720378723251
8.074011284159798
8.3526716235451
8.65807651766318
8.921912908341993
9.144292188462078
9.31584061420346
9.492400026621532
9.689256184144837
9.750547003293862
9.804389158138154
9.836735980535229
9.831308822399343
9.766173988042
9.716498608234827
9.652018766446753
9.509234881859507
9.30028643612871
9.116525499865817
8.896276194810763
8.654406923051
8.331996360441039
8.10225029677468
7.824657757983749
7.487229097024647
7.077630045350822
6.688190922588407
6.231511911697916
5.691972818237837
5.18723444973333
4.66192192507694
4.114121712039567
3.5247010562705956
3.0075381918935955
2.4789299069861146
1.9357656315116178
1.3316483399672343
0.7539512362507688
0.17696553356190933
-0.31779581284455494
-0.8807607931832019
-1.5519257267468567
-2.1743848558012506
-2.7217040404881545
-3.178129881520581
-3.5689082726571946
-3.951663078534911
-4.423718999915206
-4.868621563319808
-5.275600421697157
-5.606887569881319
-5.879260374214288
-6.139102515092728
-6.369684033791907
-6.541913329693127
-6.71566944289778
-6.855354360884759
-6.89591301988653
-6.854247776173533
-6.801171396358037
-6.727316552999077
-6.593265228172123
-6.380859971178639
-6.16149840850493
-5.943404503576393
-5.6867788614410335
-5.414824889285175
-5.125403195399389
-4.77387785514125
-4.315918259707584
-3.8726409887958106
-3.4176028912069225
-2.9765463318614023
-2.4427614810908183
-1.8305913614835785
-1.2534749269566874
-0.6417192638992746
-0.10481216629369702
0.427263862911704
0.8715203810319309
1.454115548077097
2.055192391276286
2.625880353503603
3.21192766624868
3.7483245583780147
4.275315477793816
4.797132171942539
5.283746272910066
5.762482146541374
6.234231777249446
6.665894280780258
7.102494227652623
7.4691660872101515
7.802692232137437
8.136707044645885
8.432249848329525
8.626092577166085
8.823740202765526
8.98842450955845
9.154490145505921
9.25549855515454
9.354361060072753
9.408914691144496
9.459374208826432
9.476029735308906
9.461391544400966
9.386735661593638
9.253112715192337
9.144469444667227
9.03446013494557
8.841662775356413
8.63193840142834
8.424354766149088
8.211419053798368
7.958700112740242
7.732908716003069
7.440253658136706
7.060816584294295
6.642152186738622
6.230111766314182
5.782838090226915
5.310498780395634
4.817255964191076
4.338700378923092
3.7855579693458155
3.200287690987979
2.6600696748134736
2.102341154557541
1.4970920271475139
0.9193400777377606
0.32740205877224154
-0.22207312002223692
-0.7534340178250144
-1.2043861409292147
-1.7865497846976413
-2.3691332128606186
-2.88348595198726
-3.425724878434649
-3.9842728131963003
-4.556564991811454
-5.130151164294023
-5.567122416914614
-5.922526137426069
-6.3680479695207355
-6.765155857425822
-7.111495534452258
-7.335254540207988
-7.651538266212702
-7.951692597739802
-8.222146645890872
-8.347953166047292
-8.375531327759129
-8.416091277541518
-8.399467865761162
-8.314766587462609
-8.254823121729713
-8.19176921479966
-8.072585959137266
-7.857790034197206
-7.603768181133033
-7.33208730057099
-7.0102040302078485
-6.633716267607999
-6.23215531885426
-5.789565565783132
-5.354537805577624
-4.971043704918732
-4.443109061245148
-3.7980431578752802
-3.214830556620353
-2.680540238961547
-2.0041225911859213
-1.3081112778615067
-0.6627635369239909
-0.01096886132046997
0.4706221655716731
1.0782199667390306
1.7175364326609115
2.37532939977106
2.9431192462614897
3.5559830850024303
4.173171892451339
4.7613288140689916
5.319873301121398
5.781340562397202
6.313871753691779
6.812876496013706
7.216258986910774
7.612342153768636
7.972388961697291
8.35505258484573
8.643881940581952
8.894619116658681
9.112640624785627
9.379819295381136
9.565330430156985
9.730402755720595
9.85470774175056
9.95582437916565
10.041732056682607
10.074248405679944
10.078734994613377
9.991831342104094
9.89320169235988
9.82606301079479
9.712358294812967
9.659331570491577
9.609909899546535
9.45877654812058
9.28728509233652
9.085531873563118
8.819654822503479
8.504654728526143
8.176846108265039
7.831910863605623
7.557322537827474
7.248060100868449
6.910362982078876
6.475443874162603
5.9996322798640715
5.5623370093121
5.134897872020177
4.704277797434659
4.231626229202939
3.78673583106111
3.3306799571969563
2.8802918296752456
2.3751312862779916
1.8741055622841774
1.3837042764967038
0.9356926159392139
0.4886055436226167
-0.015805241880633168
-0.5340434756884671
-1.049369315264174
-1.5415646008209585
-1.9978705280768914
-2.4278651455814053
-2.9526157786390663
-3.4745266127878067
-4.023051823713152
-4.564714681508292
-5.091756504448707
-5.589828536426892
-5.881363788661815
-6.205078820502736
-6.5986955671540795
-6.9575100647648656
-7.324864471210427
-7.725420101400426
-7.9962373154413875
-8.186372430106045
-8.346800189659701
-8.48328159698719
-8.627206120704455
-8.725824375297588
-8.783924720754973
-8.792229825667963
-8.74579944750413
-8.66116498515678
-8.55776347974458
-8.415312264857294
-8.170573399922159
-7.881793283396094
-7.628533742587252
-7.366987798661621
-7.008713115872907
-6.63713454902929
-6.338632575217978
-5.962255336383429
-5.606136120559834
-5.091632170980909
-4.453980672578859
-3.9513429159065847
-3.4076666378954146
-2.8458697115092684
-2.213747926271171
-1.7327080691899859
-1.3288628176031072
-0.7683654333712476
-0.16576332848011802
0.39998519118866127
0.9857243513493024
1.4950775710684774
1.954296334412295
2.4597349700186375
2.941842654308417
3.5594022451661735
4.1422208674340375
4.694240652412528
5.193859453440923
5.633693742592204
6.088954999087037
6.52708473282241
6.972052704032706
7.366440839251657
7.665293013662861
7.920497314701034
8.200784771917606
8.429154306838646
8.646277271744557
8.887898997785886
9.112727593398157
9.29078237611237
9.387970188361942
9.356388901106047
9.400505915736607
9.45154898361996
9.472504426198705
9.423841272559786
9.360207337371433
9.306878151769082
9.222595805555823
9.088658474420019
8.905955120988773
8.730891722879049
8.549200104411561
8.33305652594665
8.098829351620516
7.831940407858168
7.534443603764241
7.137782731677129
6.717112266657687
6.299129267802633
5.865258299532775
5.41002715669182
4.921195027134055
4.372862294076801
3.81407864169376
3.2788424469300357
2.727156697685589
2.1798951196761513
1.6518008276973144
1.1073831387979225
0.5056877116997904
-0.08367784695170968
-0.7152535345903914
-1.2643731140749266
-1.8377246001388807
-2.4672931497395583
-2.9411726520717156
-3.4945089942070187
-3.966133558910665
-4.434441898937611
-4.867304557109382
-5.302908579500208
-5.719465480205124
-6.063040628228659
-6.376875292765694
-6.574722762185442
-6.793642937688874
-6.985191032715407
-7.202178472628394
-7.419979345913203
-7.60841232839051
-7.677581638475534
-7.718609768371239
-7.653489733186051
-7.612554480023794
-7.5451481689870485
-7.390690207230279
-7.216673336270686
-7.027056941328407
-6.790883725496617
-6.473595665943516
-6.1783573038267745
-5.803279969148652
-5.374637097970319
-4.918211792614198
-4.398783695113947
-3.9059178696571237
-3.395564208100033
-2.8124711824368194
-2.3164302257444325
-1.783856880907545
-1.2146256626315777
-0.6323009580051475
-0.05814030854345013
0.540804529391929
1.1626903297254314
1.7160183305791958
2.2809071321642604
2.7403808322297083
3.2271401318611854
3.813132061392032
4.389688267189497
4.923135272102497
5.458966247962625
5.9581101451401794
6.403595440143667
6.815831353479142
7.176406288035247
7.583132635164807
7.952225892760615
8.250892015324812
8.491545565528742
8.697015318208974
8.854397704258153
9.013668215522877
9.141445347091516
9.177492548526004
9.235161614252247
9.247288894404694
9.242075204065953
9.198701195412777
9.108684285062806
8.990839401001134
8.876247868319398
8.72217118907634
8.541159990540711
8.289831359906092
8.024870953174345
7.741128076744644
7.416200245791606
7.069891844638159
6.704370206564362
6.320306991782419
5.858197748093141
5.3479939001019625
4.840657413901512
4.320947434988868
3.773450746895976
3.2375991222131635
2.667913540650914
2.1161471850776206
1.5338170731052054
0.9169707061035368
0.3259245690900158
-0.2742054833309543
-0.8585540989891295
-1.4817517027421112
-2.0653216886441
-2.6628887875565552
-3.1917720090419994
-3.577835764401194
-4.072798278433794
-4.5419258522436925
-4.978866363322927
-5.389007647193917
-5.690313164566258
-5.980207582197641
-6.276085509100111
-6.5337632024824535
-6.71190615174264
-6.855733351176311
-6.965378952586708
-6.990346314706185
-7.061817450423007
-7.126547322112577
-7.1558441597461
-7.159936893881959
-7.096355243310537
-6.988170610947039
-6.808596420271536
-6.62334879649936
-6.41903951003881
-6.177102037939045
-5.921369975790414
-5.613746081422038
-5.2862376562361195
-4.894199881328259
-4.447085140196062
-3.9915187815911617
-3.46713403965522
-2.959574378781252
-2.353302592548382
-1.767472104452807
-1.344542322152077
-0.8258651654954703
-0.2866410494699451
0.23079207370892707
0.8458992581936013
1.3513363852055384
1.8273906886364673
2.298180662599175
2.6907685147401024
3.0338409947581457
3.3399719789832507
3.636168561858511
3.825332685921225
4.033375774244189
4.253473102439294
4.459938093450196
4.61771539020968
4.739838276669409
4.815978780891595
4.8513767321076955
4.835732998794322
