value
-26.08736117433612
-25.39323617813815
-24.214542862163555
-21.9561932250659
-20.595216764402945
-18.833524525954175
-16.615918458436298
-14.972501831493917
-13.857377378820933
-11.904449523823406
-9.296403023844638
-6.6504194238094225
-4.379570060747263
-1.8059629502351242
1.8051340930020447
3.5565229375796306
5.614460510550296
8.662049485262413
11.888478739361581
16.09539414345937
20.63194821402672
23.433637486905535
27.886046123170132
26.684187645400925
30.111127421434432
28.931302689935706
31.830414499492075
31.5032022051018
30.53277879646461
30.037671327914005
29.083077756011107
30.26722138201993
26.50977147381978
25.89475328720713
22.32151096936408
21.75708570096293
21.311303426595416
21.155924277745207
18.562306474691812
17.011010491142393
15.667044951919408
13.74788918839224
14.08618058480933
12.938347926916173
10.184705741159977
7.58822524878978
7.248777987836674
5.473920803998308
4.442552485465874
2.681315870806576
0.7372571658612682
-0.9815945948971898
-2.78360103780306
-4.134771894555477
-5.744932369110462
-7.239059668173082
-8.08873391848408
-10.120568696549276
-11.995341126835942
-14.831980631067395
-15.986356072911885
-17.90750164156612
-18.637623607833213
-19.846994475880823
-23.672183333656015
-24.56082330456963
-26.750454519957902
-25.095012897919204
-25.157806998801117
-24.61185577216183
-25.279896318033057
-24.916296890086997
-22.395818450935522
-21.624311807024792
-20.16839337398898
-18.179609853548904
-16.916848944482247
-15.307239951289814
-13.094744677282215
-10.298365381620679
-8.449086644578108
-6.246443801073659
-3.4686846405170804
-1.6129542042418437
0.3927314868695339
2.6260739216862667
4.435507567883764
5.793766648360718
8.959073954191872
9.989352278749555
12.39826224901492
15.92415415999387
16.5882184571937
18.729640345792106
20.97449803973099
22.34624250877866
22.84851743261673
25.195508114860658
29.463557833671615
28.91859161498758
29.807978867469107
30.716608358224406
31.936630987211014
32.73739710733655
31.87794699778408
32.7843388951669
31.885017836320795
32.03488170688122
31.602790815475174
26.840711670597425
29.903358755065472
30.35247973571349
27.48355010528326
25.541730801662798
26.467955301866226
22.720416403304256
24.04749376264523
22.049241758700106
19.511385076912873
19.119661742437355
19.153657738971635
17.723423099864064
17.82554401356254
17.578533575974674
15.621592716174725
13.734849400675877
14.034409165912436
13.667101245169384
11.980610531044217
10.347287664213752
7.666317426090971
6.0033783558221
4.341447311461592
2.5695253468304826
1.4966088080552586
0.3738997103915816
-0.9070111746772861
-2.7309310792977386
-4.400683600734976
-4.748773168276669
-6.8043984601990415
-8.339202633530478
-8.337430113383768
-11.521338338404675
-13.255259157343193
-15.169515697971493
-15.864161301142303
-17.27688813433019
-19.370158121020662
-23.42219682684923
-23.933429888385945
-25.845678135590774
-23.732907425646417
-26.946423756122236
-27.879009967158623
-27.059897434787
-28.128185675631315
-28.858276364806912
-29.55163306787733
-29.65762034328407
-29.178902624033018
-28.36962003467873
-28.66390564813318
-27.841974051911812
-27.748477635416897
-26.41785620877273
-25.866261650406514
-24.625831673175952
-23.2933679228059
-21.11866030802828
-20.24505535309798
-18.328379735653627
-15.175940180315841
-13.538088910920434
-10.990779134903187
-8.553293216478723
-7.796169104861602
-5.004944493878351
-2.455555823303374
-0.8823084448157392
1.8104358445924273
3.276682309438743
4.2538567582192695
9.183780170424011
10.713908487180515
12.85531787495161
14.350177034863837
17.66847307379398
19.28893350234109
22.684045885120863
23.69292006930729
26.568805428830025
26.823656212833633
28.416003597198486
29.81383756685443
29.457805598046495
31.88361561879573
31.818550393558727
30.376882175880233
31.417993111513887
30.273847140268682
31.390901814810956
33.26049972117547
31.741740692394696
28.8273696211588
31.18027540298413
30.883666578188027
29.00234520071941
27.077732335670593
24.710997414686616
24.721870425588417
21.205403575040037
21.67428697014852
20.6731082550583
17.41846253341396
18.260629533516802
16.80234228575815
16.361884851909434
15.479140519327446
13.995668134572151
12.032077687049624
11.931507120362262
9.990653344837074
6.6481109696135885
5.032146072214236
3.8196895738963472
3.006218896575537
1.8111474520480766
-0.8411821550523109
-2.719300909547582
-3.4793107902455183
-5.194607530517219
-6.99739541844738
-8.771794816633017
-10.401234859287973
-10.687428437859095
-15.380398379299875
-16.77060058865914
-17.148242094941835
-19.761134418494397
-21.29770206567127
-19.607279201475155
-24.079225091672143
-25.206540984669473
-26.277493454753444
-26.399371497708085
-26.56591181180561
-27.628597367931917
-23.811343512482022
-24.376183964144133
-24.070661359497407
-22.68984543395372
-21.147026078397413
-19.005416620831006
-17.10580737824229
-15.657383186972872
-13.278598289016964
-10.777196544892075
-8.050929549576788
-5.842925536466096
-3.847315688367804
-1.983752635832399
1.755713643545971
3.873775940618775
6.386306722334998
9.188119817377077
11.122645068931101
16.236290232231358
18.159826812823663
21.143710002554887
21.157463592004202
24.1507293148556
26.656751264508852
27.525895841829406
29.531794022573422
29.48244703680078
29.344406217034706
29.06120737459673
30.423809125442013
29.201832687558962
29.100913967169504
30.478327367496263
29.09228538688102
26.242330087029668
24.873474175280492
24.530164257153974
23.375864156393522
21.221891401421818
20.035182469654814
17.76245466900181
16.502183579367227
17.452751683294426
16.723605817034326
15.845281327966584
14.479433133448715
13.762209283778889
12.110368916696652
9.034114827164883
6.915869196236964
4.6758041625576325
4.605241185575178
3.248891589431709
0.9407756039631949
-1.5732514780283609
-2.32066468472126
-5.326703112963087
-6.713363532800201
-7.8069101904486455
-9.375774752223485
-10.950031438131857
-11.638392493088757
-15.081620527912015
-17.099172861332338
-17.78538217430505
-20.18772731823033
-23.32640474487032
-25.161240607485382
-26.399506757454063
-26.55558806762898
-28.378610392998915
-27.748451122790666
-29.380783161738094
-28.49006631711297
-29.14911342596532
-28.40432112273567
-29.044392058606412
-28.017099491490363
-28.512805546028144
-27.009304642430333
-27.1201047567683
-25.15064131261134
-23.876383465473324
-23.045231818139186
-20.541335527531356
-19.86300320066703
-17.483202356404526
-15.090156286052881
-12.863258811095983
-9.76940485415531
-7.4071948891268145
-4.2860901877926665
-0.33199187316837453
0.8719865907623131
3.51484037691166
4.926458072025994
8.138968230520016
11.402192168952787
13.29204229381363
15.513232416595379
20.163291909284965
20.420872943211396
23.251513513381393
25.126120451019545
25.49064868304331
27.001449259115844
27.054122626907528
28.31222072328428
28.703340127467424
28.12080976400305
27.20834464880323
26.68485989605589
28.69673515633536
26.631915500982085
25.762354303648113
23.48847905407203
22.738008155860214
20.746250921127885
22.360547636078827
18.734508577825032
15.365287265890865
17.832831220191647
15.847754434552531
16.725949764154258
16.308977692866222
15.688297299896728
14.29684037326707
12.91004324019202
12.110573985179215
9.005387924183982
6.445993939281103
5.498694167711871
4.827520170115775
2.5212417510068654
0.7626110793366696
-1.606351192466154
-2.6751246072582116
-3.9579417202274825
-5.303536201132976
-7.36699127473698
-8.833629512697732
-10.242806348458975
-12.21115660393901
-14.161046698940966
-16.711409256703302
-16.49025552232589
-16.57799461910349
-21.255307262336164
-21.5650834434367
-25.46216925715986
-26.103798150051457
-26.443794712204348
-27.87895209311298
-28.40618371900868
-27.96229201262833
-28.670231690684258
-27.883397415352523
-28.685447006252854
-26.947103163901986
-28.308810537254224
-27.50902752140394
-26.67895743589159
-25.387563636277246
-24.6263587197475
-24.37428290210877
-24.08005342717921
-22.332940655223755
-20.856873389868973
-18.497424094390404
-17.820815782381732
-16.343545469335933
-14.387790006913082
-11.841235913327264
-8.589652230866005
-6.247769453665834
-3.9268002239539284
-1.5437842708899547
0.12612161110001227
2.6199017975375964
3.7410262672105743
7.483873237062186
8.453613532772803
10.231055098208829
13.803344427210105
16.55504191160908
19.08662651220287
21.09983112390257
24.47891949287821
25.498378735111984
25.93293259572632
27.342444089874252
27.178342484416543
26.18582078489939
24.82921982515901
25.895550296431306
22.851305082478703
26.926738179327263
25.186010049274856
22.70442286506554
19.56474514560651
19.251326242903094
19.86549628865055
21.112430864897284
18.02341544990306
16.896949833748835
15.053042530436318
13.557705694601985
12.621231119756128
13.332940027137674
11.610608359296098
9.823134399602523
7.152075527386585
6.241790632154515
3.3900987765913686
2.873773892752129
0.7395343636159316
-0.38052586433277114
-2.716563745776367
-3.410409248273315
-5.776542911679876
-6.105688373728778
-7.402734360833142
-9.667695568566012
-11.078018946698203
-13.02272627063105
-14.400764322472003
-16.330427326489833
-20.707362187226284
-21.585785760465477
-24.151732393151107
-23.408410010592533
-27.43966780969861
-26.844850833096565
-27.10966758801257
-28.365093019023234
-28.872652145437552
-29.16075296030012
-29.653888976231087
-29.37281395028771
-30.103918158934444
-29.600200383699416
-30.430336299962597
-30.84872040043511
-31.37862383178896
-29.909048339719597
-30.025139884204354
-30.166856094962256
-28.26859509398366
-27.356451546134664
-26.792843720952188
-25.75078631353303
-24.06942856423314
-23.197582307644733
-21.105651062230763
-19.167573625760646
-17.064927221025023
-15.221421731561039
-12.127209867636953
-10.879387805231865
-7.638415394692775
-4.406320585406615
-2.5259538214083466
-1.441605521505562
0.7081743020624917
4.2688436012759645
6.295697079034474
6.134026661308877
10.294253754893596
12.60426113565201
16.51588623719259
17.27500445508434
20.690959722913753
17.611205489590485
20.64605346746477
23.61659646246557
21.139140435755785
21.988487339338352
22.068529798833698
22.915426417391537
22.315536163362314
21.44144347064469
18.80322275664004
16.742904176531436
15.57888738588035
13.825884749498627
14.91935508179069
14.776419937925446
14.458281415450973
14.818816955215894
12.826754445213819
9.534592757297753
8.94847832390945
5.9685966776602895
4.789385825660409
3.3643495020264407
2.693461039894004
1.0174708870751523
-1.155272779413142
-2.2131206258295495
-4.793832366533265
-6.025150350128362
-6.443533191544913
-9.90214922442102
-10.979255771203611
-13.439187713160194
-15.910630867713007
-16.87375489544128
-19.370806523894316
-20.48232137812226
-24.278661346126373
-25.76728614797229
-26.262058535212617
-26.651714765190214
-27.503631477638557
-28.77336507626527
-27.998093420610065
-30.01422470558996
-27.80069423190976
-28.957250649393572
-28.58903307924567
-30.886910187096518
-31.3397040636856
-31.59332537938383
-30.632454268204164
-30.605997954093773
-31.28230715738922
-31.447971638284706
-30.591570194584463
-28.33359024775997
-29.46564348288729
-28.67750622185036
-27.801674257339954
-25.510066830174175
-25.31836226045035
-23.640642959720076
-21.53557999408482
-20.297321565555105
-18.077874358565747
-15.012237048851171
-12.318134533502588
-10.023154244232654
-8.059593303318374
-5.967853552410617
-4.327899538443073
-2.4894146538250963
0.18821706727572377
1.9647781050815347
4.743492634896446
7.098455073390652
10.312033560441302
11.550108121352388
15.006711036853655
19.111050306152944
21.0423462311773
21.25248130276621
23.133552054368316
25.24932770870614
26.26180924328535
27.44900390550877
28.307985456841156
27.879619809255427
28.921355862699006
28.8142742495747
27.92033526572341
27.57514340425371
26.510541796716115
27.896021390198335
23.80420724413199
21.47425470686496
19.43189800953468
21.53363519218338
21.58082941242619
19.713686781660197
20.156946996223272
17.885733237516042
19.297272177319375
15.509728492453682
16.35883685240546
16.646616877640064
13.42586158182013
14.227410673673585
12.283275785228717
11.489788452521163
8.746030967002044
6.165822257930284
4.742461872843596
3.846919501416747
2.2122100519541803
0.14229605479513033
-2.1081392938796792
-3.601332357887506
-4.740526282728492
-6.030223464729871
-7.772403187217789
-9.411168187383645
-11.37148818455091
-13.203072186476255
-13.840969002672926
-16.75868247994112
-18.365068850078952
-21.179364680489538
-23.623005171134835
-24.0320025154028
-26.638743995385656
-27.3108912962165
-28.70803492402542
-29.234467278362423
-28.972195267281926
-30.11809586778842
-28.14390690966694
-29.24025652399983
-28.258723292077967
-30.050247663611653
-29.877373703346755
-29.8837204309285
-29.913445233619782
-30.32958303161944
-30.762552497760257
-30.35116479448002
-28.169291089062227
-27.133976032699156
-25.756332074875903
-23.879763644244168
-23.58531568765359
-20.091665522723535
-18.614776421909525
-16.526535498872708
-13.956347215216972
-11.606706135066176
-9.035071064160066
-7.667745910354584
-5.25772417563021
-4.300452571112841
-1.7131234924728163
0.8506367447688628
3.36647510468691
4.087616692993318
7.784546483623782
10.783272274227908
12.249120005480755
16.67036110624774
17.916148287581674
18.923481076486016
23.486976122965757
24.402862097048832
24.777571683761824
26.462060207340592
27.89343089671086
28.82401773062617
27.565033565541466
30.65536827950357
29.748010460971628
31.85014276632743
30.715193750383687
31.236978991854844
31.373393970057187
28.765969071659665
30.101908425131775
30.20780122786762
27.53277570659693
27.984466331548283
26.766539918833843
22.53093660642508
20.626839722060872
22.971846154285274
20.774532976989722
22.87635362559844
19.029762120648353
18.502238832757
20.802791607455124
18.0503681261489
16.16036120819353
17.34915279879636
14.93542752389168
15.204770145579792
13.619200669174099
13.554510120829027
11.656548544584675
8.977926890794903
7.418241552360179
4.56430087279019
3.0336824068893593
2.3290485013472653
-0.7163298648867127
-1.6142133775113365
-3.25891658844309
-5.275359080411512
-6.069721106051121
-7.725922957218639
-8.788692314187214
-9.948146654175599
-12.77356213033903
-13.995793729109394
-16.702409540029844
-17.725295687067845
-20.4737474223514
-22.083803286489264
-24.457961205021423
-25.856912298261715
-26.625988670497623
-26.349184788096114
-27.63097755325667
-28.574604714147412
-28.602912413089747
-29.157139322978413
-29.358918506771428
-28.067037564408697
-28.17485553979411
-28.43848946038404
-27.89268207691051
-27.318015977682098
-27.196517942758202
-25.223894398627518
-22.825412545299706
-22.223776646806595
-20.04001272813048
-18.249095265112086
-15.64416554641594
-13.330199567890011
-11.233736909773222
-8.6602771473844
-6.230777018571618
-4.136688542046665
-1.7997013596713665
1.4468137949622328
4.587754042919319
6.3748413865789
7.728295926598512
11.113842766767142
14.317932674528572
17.13386882525489
20.202060710910285
24.637337351478422
26.54797959698628
28.410288753855333
28.941277689035793
29.63687337810291
29.261811992705756
30.03407462654749
28.819347641678156
30.344076961077757
28.51118919394917
27.015943249844728
24.960777692533128
24.858284763621544
22.751910325067943
19.90625821084104
20.93159263919459
19.86284403817136
21.0994801353843
17.66111125500917
18.21307367781451
18.267904260092223
16.919430335636566
16.70880036085864
15.077750358916365
13.234539933529357
12.176503652513786
9.466760234042964
10.143713524134867
9.241498563023358
6.951462621517999
6.6802251609263905
4.710472794217818
3.7273778529086172
2.632019089449356
-0.1621633236616355
-0.75859465859621
-1.959877927745696
-3.405221239929614
-5.296254907146927
-7.007486633227169
-8.300935933709031
-9.383731737129445
-11.073517661097775
-12.90559694213538
-12.801114418732384
-15.169579579205044
-17.0199411447108
-20.118093785403346
-21.876965706916064
-23.93818785968509
-25.148650317722367
-26.290409217685593
-28.784114966876245
-29.14196942310845
-29.335244873183115
-28.14846206665836
-30.119985209665224
-30.022225346847804
-29.814306420343197
-31.508112950605636
-31.190869984982317
-29.982196327149445
-30.400370354470773
