value
34.16970538028112
31.989310265808413
30.924415792532315
29.259651981569945
27.470058732497918
25.974629436999006
24.506824143261742
23.031050941405123
22.214397059960493
19.817637937291963
18.08654693096473
15.896219729527894
14.3312279295393
13.878683761837816
9.597466669907092
8.959274977069033
6.779606841837438
5.12451283375886
2.9727491117459386
0.8237535983290695
-2.417736750708221
-3.842588673693154
-6.350688014038368
-8.839087497339767
-9.456110523212848
-11.388081746400287
-14.0323249546748
-14.529124668634728
-19.033421384747413
-19.293051685027102
-19.18946207263438
-23.08389502730972
-20.073367545374236
-22.153119933756226
-23.44856312327926
-24.383275910891324
-23.361702105893556
-26.461824626733666
-26.19009195377802
-25.18432312135459
-25.796833733155463
-26.345044329914625
-25.858053057621518
-24.08820831655329
-24.248245789548886
-25.548331467259782
-23.21578200444956
-22.398511398251777
-24.19915433911002
-22.203088289607685
-22.19743843457582
-20.285866957338737
-21.547372131554525
-20.239621039839225
-19.856318090330856
-19.16331863570501
-18.386737675759992
-18.492704449154665
-17.120579857474617
-15.884313308769373
-12.134137131341546
-10.20653623784926
-7.743886648016656
-5.265167745895885
-3.4144237514974036
-2.1266669061111285
-0.4882819749337788
-0.6229001257767321
0.2620518802882677
2.104447073771726
2.883093744336967
3.3179987575832386
6.090632196494965
8.626578554192514
12.54071617772603
13.757998708660134
15.244268511404753
17.32085042891838
19.116038336023742
21.421022581838578
22.55018135951163
25.1310162912865
26.68571376423643
27.041872165895406
28.451302574610935
32.0070572149205
34.43173935143905
35.84429634309258
38.19376428487749
37.5975532394925
35.347606809121864
35.48260294257275
34.31403296496448
32.06065058103499
29.72861416836109
26.250981192213985
21.448556307486736
18.185528797028777
15.64909936436135
13.464767253128612
10.272797616791438
9.262701827505182
5.282853468272273
3.0572112003759826
-0.25260012454749836
-1.326204207650386
-4.944584990357248
-8.05044024165676
-8.71689331036024
-12.645476226332992
-14.003241844186618
-15.481976370239975
-18.094255268436488
-17.741222329585717
-21.80210312896254
-21.186118121354667
-22.41464762929595
-22.24681219131566
-23.506971425482657
-22.381041013486733
-25.305949746266165
-24.808324487189484
-26.46933466421556
-27.34595653107762
-26.782867449476853
-28.964750816523182
-26.432902986430214
-26.414616792096417
-26.583196379641993
-25.701743300823708
-27.506770738023288
-26.30274506626358
-24.134881398389343
-24.114539556296037
-25.265106628199568
-25.06238121676126
-22.825616729357865
-23.92502501514483
-23.145883892594767
-24.24621670029877
-21.54601836781722
-21.550431839172337
-20.6934981105038
-20.051670840701284
-20.21640989543332
-19.653049729717043
-17.29576906131151
-17.77857347659113
-16.29222397067533
-13.744044947368286
-12.625218758414675
-10.45302415832669
-10.350084802677989
-7.448489499538603
-7.035768717811454
-5.472478357146669
-3.7288253775189997
-2.5008138741612997
-3.9158676379463278
-1.7261868895467793
-1.5301394920385982
-0.6023242565849842
-0.9562299182968141
1.3918423134677476
3.080733788542827
4.0203557036723865
6.245411106312336
6.983912109689439
8.631839478067372
12.05228858022219
13.401724467013587
16.955761108782013
18.126436021620915
20.03989305119047
21.710811274370506
22.264390514421404
24.4946980419586
26.55202314324822
27.308320367894936
29.55473522496964
31.501572445595624
34.7913692604993
35.37699531415648
34.904563680226694
37.183407111139225
38.14149056197901
38.9037005737425
37.03888180930994
37.28034657916403
36.40331919159169
33.796127633811196
31.89438781776024
29.44266284393403
26.15773551728604
21.929953609510566
20.33868640964581
16.968635750824436
14.165804727252942
12.528057945592609
9.47941210851842
7.192140612930456
4.821594561011392
1.743896301355294
0.3111842568870452
-2.892558024119398
-4.112515124812301
-7.760146910111041
-8.695906198040053
-11.88773180449362
-13.429839580107295
-15.642787187629088
-16.085591355891705
-18.95641859112083
-18.11759374493714
-19.000591934792034
-19.08911042614743
-19.715751439449154
-23.380540355312824
-25.628391765680544
-23.994186453081007
-24.425615869178706
-25.03193883866499
-26.174138302197665
-25.57728605723167
-25.716284815111436
-27.192765712481588
-26.39376429123787
-26.135616852252483
-26.642160737228647
-26.698829639947824
-27.215692025147384
-24.6051697762921
-25.18141420648903
-27.035028033362146
-25.24157641553485
-23.986869467110008
-23.79759034783683
-25.655708954912324
-24.490568600088487
-25.29545302394859
-22.92027270206536
-21.84695853181055
-21.554257715748516
-21.836992925128573
-21.308292821842638
-19.643026181786098
-19.353283410746254
-17.28143998333323
-17.59601720491401
-16.101305833509784
-14.973158434219906
-16.022875513999857
-12.852156921617103
-12.92923025423553
-10.961705346444335
-10.643109809051937
-9.220314425047059
-8.988248767123714
-5.531917532781652
-6.399149183954873
-5.638260287538377
-4.5758609962500385
-4.135797477822167
-0.9912532675521005
-1.1050273487235593
0.4977145303598875
1.8686560552029008
4.141343195584244
4.555090442186636
6.60165625415853
7.369387638767892
9.396484126506634
11.511267417980998
14.659889108199105
15.655227645404448
17.505966966379475
20.819663272267647
22.55319480730528
24.088259301660365
26.475456104832215
26.55857761084521
29.118140567599912
31.849522307283245
31.937994792253757
32.4167306994098
33.26480781660807
33.482325005711395
30.707787391331227
30.39093468285698
27.80656298002123
24.3267296437278
21.048449727516083
17.935136718581823
15.836729922596053
11.659217439578743
10.677058010179744
7.024592691955979
5.121124659820212
4.399484830311169
2.1863920428042523
-0.5683985901723904
-3.072470876117131
-6.013452115943623
-9.880811513239646
-10.423883943855653
-11.4888313137431
-14.586476755876252
-15.74267776346671
-18.26422598471083
-19.64415224300065
-20.006176137562992
-20.146833611613364
-19.25710566239642
-23.95158896839329
-23.129447072594598
-23.344973521768456
-23.554325430161672
-24.110027917262776
-24.949721572854564
-25.23140504175142
-25.937576213783178
-23.850709710252854
-25.5074115496575
-24.314280111727275
-24.086887289152386
-24.15050260916673
-24.10042582648712
-23.77344257381175
-23.831620149012664
-24.490824368418902
-22.695368664004363
-23.21278794141892
-21.4280983477736
-20.356207080407035
-21.066457827820887
-20.029014588392574
-19.458008751328123
-19.255724713264645
-17.629074643525644
-17.009606936460912
-15.61275933610711
-15.919945729060359
-13.735402663879043
-11.334134024795999
-11.470444232802105
-11.727448535726488
-8.876987626892552
-8.405723674382962
-7.598998894145199
-8.314896231742132
-6.538507588334071
-4.724594026800258
-4.676694991504268
-4.259220584372242
-3.0059548981567876
-1.0580209161119576
-0.744623423759572
0.39551486217087467
1.5616563868296434
3.211718101707055
4.675115322989336
4.813054632325037
5.221577873868157
7.877129105476274
8.31645632485272
11.468262405362696
13.273950401322498
17.125087398273205
19.25477029875418
20.880723083559275
21.971543522325437
22.985567074005722
25.567918688917842
26.752586498798387
27.678273926144232
28.54940080025071
30.008694621722952
31.741744553032312
34.8890920960625
35.075730605396835
36.29672404991948
38.56792930749888
38.50715480834387
39.223427903476164
38.92829538548049
36.13228917305609
36.139982905117655
34.17287360123139
31.479979230337648
30.46016802214009
27.545039874217558
23.858422590008775
20.45728024712568
17.859475399742106
14.698836544330607
12.204227516650526
10.317382606579436
8.703905319664152
6.220324075374679
3.053845255624633
2.1656361883970767
-1.1821611762462516
-4.481530213844648
-5.577332106135301
-8.69876476102116
-9.488071944581417
-10.572150761888954
-14.5901663383703
-15.325327680533746
-15.368969666869944
-17.99009801702526
-19.06269631886905
-17.948830939013813
-16.31011093138094
-20.46564073563246
-19.802905661119624
-19.820142945697672
-20.870147248901034
-20.466021895949883
-20.93252982181312
-20.777652159760436
-21.421330107723467
-20.17391153432468
-20.365327995586803
-19.970378488434864
-17.70190173921717
-19.310915756439528
-18.59000941634109
-18.097336538374055
-17.445271010622854
-16.993965826563613
-16.025073187952486
-13.579738953334772
-10.762408968251595
-7.430415839757281
-9.232807102409712
-8.071787531162423
-7.4290683426465565
-8.0338909720045
-6.268686371308819
-5.375298538073679
-2.99742811747094
-3.711709821676808
-3.080897522153101
-2.8186044028983672
-2.0615161542669225
1.0819934488683516
0.2763954710820501
2.055197971089705
3.6429473670961183
3.493250616994517
5.627911926571056
6.920318038744535
9.195010094291728
11.904169369520861
13.944579703276785
14.194599126448296
17.043315245663248
18.88797985350723
19.994293780417227
22.025992594558666
21.71378982830431
23.66827864276209
26.150454045359844
26.500852365159176
27.263070271951875
28.427636605753623
29.708975116879834
30.33323492290032
30.201224469058683
32.71383581328695
34.1113448739553
34.45593590384172
33.937272209860495
33.32617868306845
29.69460321867481
27.85959834365549
26.97241625456718
22.9972946102298
19.473846943396783
15.851647083037344
13.831955653870903
11.870604755274574
8.538154658664862
5.61083459087478
2.192283750783211
-0.2487348472715139
-3.427507657672004
-4.170083197726984
-7.001702620720806
-9.74319367615545
-12.16283551568514
-14.368165338540859
-14.499141323547047
-14.861974592446334
-18.44672358418527
-18.176044593316966
-20.065524953728424
-20.999569392055065
-21.16524019549483
-19.401156343349363
-22.448766368044165
-23.66701066044545
-23.670591906134767
-21.89901654557248
-23.55700783986094
-21.851780165045255
-22.820671659972152
-19.90507964885911
-23.20911191156511
-23.271057058032476
-21.613179642405694
-23.324071249604422
-21.244323473004716
-20.85148954512519
-21.926104913658893
-19.918150892670997
-20.821594002483675
-17.84068762290248
-18.68638246836403
-19.206257779328052
-19.76401159923752
-13.968729368887118
-15.013843654223805
-14.629568987850575
-10.665838932993374
-11.04464653445058
-10.046620218534061
-8.763243433284096
-9.17076862959324
-6.908749132200305
-6.932159900544786
-7.682038291280629
-4.629223182367859
-5.49715653917067
-4.26748401284865
-2.310700994079161
-1.8510141572143357
-1.3403395541594962
-0.6527590233447802
0.017350007094699672
1.4966647346912232
3.087430491862406
3.349351433005789
4.083067416050845
5.35827404030212
8.034228660865265
8.606379919299673
9.627187618008717
11.111528851127122
12.363907954696561
14.84321616327099
16.663991917178315
17.976659515848905
18.425350544613263
20.631284864765753
21.225626489897504
23.178715024450668
24.085189034761758
26.388317198139276
27.106717196318314
29.280867104258572
29.95862639912205
31.089850507313127
32.24668927496734
32.31183880023297
34.88046381406789
37.53943100911315
38.52650119841802
39.75038047150912
40.74857553420064
41.698596875656165
41.152369286359686
39.37513049790734
39.02843476557311
38.07840609522753
37.313634203594475
34.59100893345378
32.919104545937834
32.25263522869435
29.220547516863594
27.483775802610698
24.610647928620903
21.456474569170382
19.22107864454806
15.525752376238588
12.298026942775934
10.144915159145855
6.868294477366426
4.910264680765843
2.685766305351507
1.715281114524291
-1.4744906102681472
-2.474660570824794
-4.676988667907792
-4.906731786277391
-7.305857882089842
-12.18983212927613
-13.329359364137654
-15.399556322460194
-15.62132161129522
-16.46183779441401
-19.393504402994683
-18.868183385825024
-18.7758808920074
-21.428364488741764
-22.764702216832852
-21.278072391428555
-21.057305681717597
-18.019228368815874
-21.524817647934682
-20.789504984236004
-22.43131436915749
-21.26300236434055
-23.848385490400293
-20.675275539971302
-21.33097973401219
-21.09624370644588
-22.74939334796953
-18.754219092384766
-18.742031228761615
-20.12310075619551
-17.457226861328483
-17.054184494373107
-17.82661124392868
-17.67321261308248
-15.567632119875187
-15.059613153149426
-13.634266772548497
-12.100366606850326
-12.220398823179403
-10.672509358076608
-10.4480760028255
-8.996633963861969
-8.345345977762225
-6.7625563988766775
-6.681002994577468
-5.93709402689391
-5.90926476643619
-4.257540346947547
-3.5856539003204535
-1.779314165845782
-1.1212751092182747
-0.2385360845763038
0.3169226390128152
2.2432711741802547
3.6346372453383835
5.158790034059553
5.338684558571407
6.518381746166751
8.614635756274701
9.407291672554251
12.268013599171047
13.442239493979903
14.336941510176937
17.111815901670255
19.590877688298775
20.944942849950184
21.97584270086592
23.63931347581736
25.70933454333114
25.900056765619052
27.683897518555277
29.24116234256875
31.02023581236822
33.712020057235456
34.51596535242179
34.628385598078474
36.34908532214462
36.54101262207597
34.87314515554635
34.305360239828715
33.93838193637544
32.23054381032842
31.79843653430079
28.230216776869092
26.512381980430458
23.098435801529035
20.651379548955216
17.485328023389638
14.412718372280025
12.791491613350166
9.940574165890208
7.920167613403006
3.85907737097911
1.2687096655718273
-3.438476802115772
-5.455451954308862
-7.898506888430401
-8.634805396853519
-10.930830503761483
-13.802354349985354
-13.40901692913205
-17.503021566653373
-18.849987738824254
-18.893592568868343
-20.105301915122947
-19.9643410609429
-21.677846234666713
-20.094594089542532
-22.38151669165961
-22.127055154396775
-20.508313676358068
-21.611388925633296
-22.260282684247287
-20.15251114853766
-20.03099168414302
-16.516183436980555
-19.123095193117848
-19.53344663490739
-19.445042736914687
-18.134642472589544
-17.462762678013924
-15.233793203031269
-16.719519124967288
-13.539248855065487
-13.48464925102943
-11.646787615004973
-12.104957984469586
-8.385781687661975
-9.704804134618483
-9.255110887685545
-7.442652620674345
-5.898452915444827
-5.460992986890034
-4.9938736570536655
-3.723748484279454
-4.634736464620396
-2.5959930982143526
-2.182212387397121
0.34070437387899216
0.9467334197265183
1.9420363494042057
2.050289935580598
5.086720425984266
5.383840853389536
6.586887740895499
8.27170701580299
9.978908430825285
11.672925584128288
13.091766684275559
15.186635850360108
16.110964060793275
17.563383535966594
19.532282932451334
20.418661427508063
21.87226238815906
23.039250060800324
24.98979087945257
26.009468910828215
26.912651681416996
28.34690498039023
30.85103743560009
32.28123680339433
