value
-30.184024050670377
-29.622031322222885
-28.22516611866653
-26.42993234113504
-25.62210889686037
-23.394959853733507
-23.13860059905125
-21.627933303287634
-21.360662734332138
-19.36812623730313
-18.300934384059065
-17.002152937240464
-16.563172219491687
-14.26611452466362
-13.967704668545016
-13.186636817950735
-11.494410740434864
-10.30753180963509
-8.11475587390393
-7.4102640722574025
-5.7220817052731965
-4.763175389647126
-5.594323462654177
-1.8405207722571912
-2.784751372212755
-1.037401364857747
0.4027248211651904
2.2723093918046864
3.6577884297358287
4.499400758143346
4.4315024452625025
8.255054733216816
6.941907415373788
8.79399578079566
9.05790083027118
10.245940299669549
10.176032456352958
12.196134270130107
13.292480808086564
14.641696134595607
13.989613836872417
14.090810786242237
13.59056884563895
17.989947462459046
17.61623593975906
17.946246526275647
19.692941643038797
19.121556165359802
19.27353119439454
20.708570758499395
20.7849302531084
18.734915471764293
21.69574843568637
20.815411106057685
21.107576651623525
19.82089678079545
16.340331747060585
14.33301880170849
12.89618835057402
13.329845152128973
10.298968984144034
9.114845624566762
7.578161131986928
4.063815319600835
0.6114654801709835
-2.0119695646876146
-5.501044996715225
-9.432951532714151
-12.804709710449362
-16.054793181242964
-18.84169934586794
-21.208593388623125
-21.57784364605952
-26.065825988329447
-27.91135823593321
-30.385074360035944
-32.416483972617755
-33.30420244364429
-36.0151044804273
-36.657283091932634
-36.9608394607247
-38.69857795269556
-37.76996623311368
-38.14416676111455
-37.80118635352495
-39.123026896755206
-38.1255605375277
-37.502029367664136
-39.43939575890613
-37.74074637303145
-36.10274950028386
-35.83048673240203
-35.133701868972985
-33.226812879855316
-32.20264067342938
-31.430677564040366
-31.498616191201744
-30.34222112177227
-28.66354103042849
-27.322276808267283
-25.93033076190778
-24.106774192852207
-22.557898403424897
-21.5677213961347
-19.467130546940606
-18.727102873731624
-17.428653709665788
-16.776736322918545
-14.20546619733501
-13.398824994195413
-11.403809573221729
-9.39841588459948
-8.972901765875156
-8.671568069864408
-7.54691745599341
-4.670936144713981
-3.9327424593909384
-2.2355680259050144
0.04266534043001458
1.5254958557192524
2.342119992315811
3.176270320749992
4.283861160676801
5.819019670948806
8.620680902825587
8.865564772421425
7.652634463352382
11.061346053746199
12.327229856021264
11.785378287519855
12.664182116924483
14.444629301075715
12.793112049792015
15.500799092052585
13.915545795177497
17.081359629475198
16.361478440496718
17.700349315381786
18.674470411308324
19.544720724388213
21.657136742192233
23.094653046184433
23.56503340692958
21.80070153907853
24.180368390546803
23.689904980182053
24.52366979416183
23.095166143079
25.963843219214226
25.63594607420125
25.425881981484466
27.92508903260198
27.472580174610215
25.784443281864778
27.418818260131946
28.261956535739472
27.607794526267508
27.591524752990214
28.927794364527195
28.488508934186456
27.96778252981694
25.05178595911277
27.321113103091424
26.645392214967874
26.36426371764297
29.22970526066541
27.13398627216257
23.976187954354096
27.445889129149883
23.387738154796352
24.63927495622263
24.102059858514536
23.189621406775135
22.683898847135957
23.54766383664792
19.94424580631078
18.124073538436704
18.391148016667138
16.161957236153846
14.448446808921219
14.030036491801296
11.620184507346886
10.714074118239203
8.597437347856037
3.0983252826692715
0.8770434020914354
-3.2065451412316146
-4.698776549943534
-8.122217494682808
-12.027150324254173
-14.76456427993921
-16.18246812578017
-17.63011971274862
-20.081249542232563
-21.627053541212216
-24.390530199811927
-26.771599593056553
-27.560174841162002
-27.60242198568735
-28.259357013928675
-32.11421979734962
-32.91982184566745
-33.77926418783383
-33.813178191421564
-33.237349829953224
-33.14198482775228
-32.764774910175724
-30.93684699846594
-29.570620908796613
-28.15852782688602
-28.000341888899044
-27.005922351822065
-24.629726635781935
-23.297100255329322
-21.424581691475613
-20.162912501849068
-17.095171568465872
-15.56414355195936
-14.296252058028724
-12.783550316616424
-11.208277190010318
-8.799191843247437
-8.368503653292052
-5.808166949402216
-2.725722377676362
-2.8910049241459976
-1.269779456891847
0.7638835819488792
1.1309759735200418
3.2335863041230954
3.216706537569236
6.998644074986539
5.273912199423632
7.754768745490279
7.7738194712041
11.04376879498274
11.21659002465571
12.3341882808582
14.364906287405393
16.02853503284059
17.29882630685115
15.956722161738753
18.790343025291357
19.535519515529586
21.153288183631823
20.69640149427398
23.257538932811496
21.41076727759969
24.30177133560625
21.60267732993293
24.352381944691057
26.21840113028429
28.208344434686236
24.950379343058966
27.15355793417466
29.301549959361996
27.206483755156352
28.872740510190532
30.014263621000374
27.448994404243805
29.80684467441838
31.47818683254466
30.092347811608157
29.41878651025236
31.045160646497003
30.03599945571982
30.884317982937247
31.706583240730517
32.715528639134874
30.688721476939868
33.31331542245066
32.07838430747628
32.24740199856331
33.97147366593314
31.397938017797813
30.880567832902237
31.01946532009076
33.2926901059488
32.75095869184968
30.661611022595068
29.712627794616566
29.886121369637458
30.137113313693494
30.433441525326792
28.985756758006477
25.837824891433907
24.34227011107125
23.017773008740004
26.323712410749216
24.161875518510712
23.01314924646327
21.382499791850897
22.1951928137389
19.516690875999632
15.686143350196632
15.163547034852442
13.247079451587444
12.15149874422835
9.568861759952993
6.682967014638049
2.9518602409270374
-1.3231295427849776
-3.1814704501603304
-5.383016395485506
-9.113146165964059
-11.488943134527792
-15.474553247589654
-17.166884918243795
-19.55100433747472
-21.68928159948741
-23.863455856749294
-25.169956288557824
-27.301303625066502
-29.667777402992627
-31.176363932244975
-32.50174839410094
-34.6001069353233
-35.40266443257524
-35.96067508296272
-36.74232393462724
-37.08715337488776
-37.54440154309827
-39.27109268256708
-37.87042167978915
-38.44576369114958
-37.104864472259784
-38.37556935788938
-37.27473697932973
-36.80795248410867
-35.84310458950375
-35.83731387103764
-34.82360068117023
-32.72122209081563
-33.02354501323043
-32.569605748331824
-32.91026257852031
-30.71066402493926
-29.663913537422914
-29.452754609615212
-27.483832124523065
-26.9305590809756
-25.1478394451283
-23.670466923539266
-22.024618858225782
-20.67318302915387
-20.025112117690483
-18.497949497742663
-15.828087318124672
-15.273138526445992
-14.770961198561078
-13.262067816417787
-10.723286037370768
-9.409593540416083
-7.7331707738441535
-7.305743249423318
-5.975023567896662
-4.240155700643215
-3.5901756049875875
-2.9814276867647953
-1.1472814369251558
-0.5473569563538652
0.34774119135409526
3.440739464448528
3.175512650323877
3.805724193868558
3.8032641579515025
7.7200179572983
5.95025532110668
5.211401731151508
8.51075161455051
11.211720542595726
13.000052640455635
12.630627137077115
13.174621362480154
13.86872314692223
16.53789717084304
15.036385714278472
15.379334554202057
17.938658061543375
18.15141329975733
19.67978443724662
20.348753044222516
19.56077567860821
21.11744045725667
22.315439001065332
23.408126183935423
25.197202871954495
24.194634179798477
25.52917856925314
26.52390755757191
27.30030377495983
25.814281634294975
26.21365537858596
26.872221552614988
28.058005272960155
25.748402413750238
28.160711382868755
27.653636208152893
26.571592094951157
28.0152553068137
27.393779589137537
30.087212584369585
28.82047915379123
28.719427447889608
27.86635752998883
28.546989949303697
28.514579969256783
28.446259702004262
27.307443827223977
26.867802987073002
27.50896582872282
25.649122645176547
24.59839427938587
23.149949078746207
23.038601508135955
21.21392161429333
20.81809855063815
19.09034891779079
18.30400751822525
16.162285793390584
13.382891199259463
11.209261329862583
10.7494863491889
6.791652997914187
3.562204521190153
1.374995325645136
-2.6709610856907293
-4.90345470363488
-10.29229520649608
-12.833656539350416
-13.910275249404604
-18.511542696721154
-21.59841765383914
-22.34221075854995
-25.38358815746904
-26.02655209832098
-28.68750154684665
-27.793803833180753
-29.502157139018593
-34.49754085267514
-32.99698357984819
-33.56987509198877
-33.54293709156287
-32.8776561930593
-32.66743831201606
-30.493845968927644
-30.322887962906574
-31.061403391595192
-29.614760565396566
-27.622373434271513
-26.806142661737617
-25.472204110876447
-23.373556445672307
-22.22926563265589
-19.5900918070439
-18.909270134670297
-17.4372305531703
-15.284860739893908
-14.510239423188388
-13.416891937986017
-9.759751392097362
-10.085711222719217
-8.23172984030755
-5.949164758755709
-5.524841141079519
-3.7528101492010433
-2.165583122289489
-0.32783168294814574
1.1384348437983944
1.7299524529944081
2.6606033111146905
3.7534149213215953
4.7285092772736546
5.525081785417849
5.9010842509487
8.334947797188706
9.22290132045281
10.698669160813376
7.829662343726751
9.852329673669628
13.381168410875743
11.168032816413042
16.57099122275873
14.659024726917204
17.579294892059355
18.886580819691204
19.94512666882905
20.05196270848702
18.652317485621154
22.613893116983665
20.584762148262627
23.554581669090275
23.94168842940954
24.952144242542072
25.61050471717864
27.169060442478166
28.189625757818757
27.472343934131846
28.427887218875895
27.073276807896004
28.662995750618816
28.30391557358101
28.6104620062003
30.71171102171763
29.522079220267724
28.212735373744987
28.37577279012844
31.006112759798853
29.964258340067452
30.021073764230643
26.30443394580062
27.022353178542456
29.267071183094593
28.669957820229786
27.862426976047487
26.911318580616484
26.248925095485525
27.536917578314227
24.97566667582018
24.341551914038337
23.180019248749947
21.48155800780371
19.93889611318621
17.215993561540248
17.85839639190726
15.080402666014404
12.537750855140626
12.866056781215148
11.118589524159853
7.923900610018563
3.7817928485361154
2.3225255800681146
-1.6876598166032906
-4.7225394472290745
-8.262986572239736
-10.564615764540543
-10.026754894333685
-16.308632919049124
-17.713781535230048
-19.590772719181412
-22.074475001833594
-23.88483848006208
-25.841848292867457
-28.37160773789373
-29.634888921706274
-32.8155761652351
-32.60577224001314
-32.43573070662753
-35.680421815320095
-37.50627971395998
-36.52934003863509
-37.6386112111841
-37.70704860006355
-38.74043596107876
-39.151696232888014
-38.135236906685606
-39.35642933138167
-39.001922183013086
-36.79806814424687
-37.019694357598716
-36.22519980274281
-36.60709187152825
-36.11177413831142
-34.35519644379225
-33.07524980520992
-32.68205645235599
-32.4997705267687
-31.5459946796511
-29.922632968751067
-27.967501779497802
-26.424106444088007
-26.26502959035297
-24.615841980711593
-21.839298793395372
-21.84629575366099
-18.808128576029798
-17.367982566178398
-16.595582351206005
-14.166205078171517
-13.858296254444388
-12.357277463644218
-9.938284102522015
-8.791964864584537
-8.203272178942392
-6.291687914754696
-4.328976190978308
-3.543622067447446
-0.276691866831999
-0.041821137051855556
1.0458532436992136
3.5394947467358504
2.945868475011752
4.69571038033058
5.215811173031643
6.293528986670965
8.549501328664505
8.060274244000492
10.764280346696149
9.616299094301981
11.605857544492451
14.523984683898107
15.459346420419717
12.27196364382982
16.970790133993827
18.396888007725515
19.284115677818306
18.900000462506384
19.978356588542336
21.05567740235931
21.631888632693755
24.93165575133357
23.364559854623927
24.941310195313058
23.361299317284367
22.27869503024717
28.013464229781256
26.92967981015141
25.463119882096812
27.808300526243926
27.237703876493256
28.924071031163
27.072699931147667
29.178697531682054
27.800919677506748
27.567356274089178
29.4709706178756
30.02108626980964
29.579206908917417
28.665891038416234
28.943387204686875
30.01590268179353
28.22321233753252
26.96120699553746
28.989858693024694
27.05408999090171
26.686927356206084
25.460252091565536
27.39405090943035
27.70698366445259
25.873830802106564
24.01778586757494
22.742877595426503
23.754762993168086
21.945732321177758
23.52349588939112
20.674428675878616
19.327883458659066
17.594328261688823
15.172462814279392
16.278535815245956
13.477330079203961
14.12119403363661
10.322992866979808
8.087537916815249
5.6662634705183
1.52589238860402
-2.5707658581308532
-5.0400667748362675
-8.589141962008036
-11.597391360025533
-15.105777784627964
-16.479107403649845
-19.10164374444206
-21.495286438190462
-23.113624872490224
-24.283199185929565
-25.64404542227302
-29.168123571307888
-30.214230575830715
-31.384399980552693
-30.926107884068625
-31.493231511434995
-31.468225620345446
-30.964638161865437
-29.535966535687308
-28.95788741751304
-27.8326464697465
-27.247043292671673
-26.003860597384982
-24.220529308765787
-22.33666772455831
-21.209878882424558
-19.36937078327748
-18.19047247406464
-16.81374786025656
-15.887836832072294
-14.015712375378573
-14.069932981267756
-10.935522596056995
-10.69777425745105
-8.895273831698873
-7.438165743042296
-5.400491963167641
-3.6809732347012285
-3.6076010745824165
-2.749316301752886
0.7080220974557093
0.5114756862290503
1.8775268783130814
4.417229157965815
4.058993712208098
7.341646635645528
8.855979679699129
8.564315083930717
10.256981822670362
8.624430300387058
11.880074390982836
14.01047740042535
13.88260797166879
15.151792786120268
15.903845624256208
17.94561237070431
17.877860400459554
21.633350239148903
22.276087985865214
20.14711449866852
21.735287359622994
22.221915789409326
22.089933668389513
24.934627620053853
24.521932198339883
23.945817459376386
26.82229276139784
27.538923865027478
27.854434939874633
26.622900322921097
29.56192287356937
31.05108302366526
29.360945447979308
29.244869448404643
28.173856582625962
28.216924104455185
28.671887568206593
28.988779008159817
30.520537334335604
29.30244750000816
30.552452104832682
28.57661978751081
27.61085288625492
29.684822642409507
27.189929628145165
29.775954175427014
27.247671754802067
26.993919870917196
26.30237238519195
25.84172404637968
23.591783130215912
23.69483647835916
24.18590072824652
21.87210599175424
19.63967528044397
20.985010107286165
17.836860587724885
16.146205252216628
15.133771746316143
15.013459140664681
13.23745587402485
9.928909510515437
6.962459709642583
4.643570754063697
1.8077211747610875
-0.776836231397687
-4.446407544191588
-6.143481677264163
-9.01552668558935
-12.535717084589828
-13.659733886325377
-15.987845345931198
-18.608358689189078
-19.18624613499307
-21.599366853698484
-23.554444340466848
-26.218511607563183
-26.708042826665555
-28.721545321716174
-28.331280549135798
-32.34480199405551
-32.26087832807848
-34.70730042382923
-34.64765596585039
-38.513800765917985
-35.65522003163708
-38.18166252070751
-38.00516837819455
-38.304060709994104
-39.42786829275684
-38.76343700742446
-40.491776795391964
-40.28771660414045
-38.992205968421246
-40.32966527748843
-40.60122778057149
-40.10131929685178
-39.9592222860858
-39.57485188322629
-36.80352629455376
-38.41166842748595
-39.022088744125234
-38.66819755484302
-38.13351763954081
-38.46117030326401
-38.597720383382395
-37.52427241872014
-36.99996928118217
-36.16591331473669
-36.34295508264983
-35.636338119696134
-33.22223574024881
-33.336037804069605
-31.125603489367542
-31.23623571364655
-30.262343450940058
-29.67210497900784
-27.201412603022767
-27.695677297093763
