value
-29.14335036093254
-31.386931287195367
-30.42795748779719
-32.54311137678312
-30.81118366610355
-29.964700987054908
-28.95763813553003
-30.877546292378746
-29.44699264757156
-29.775350184860258
-28.258347240641363
-27.17513727750177
-26.93060185772265
-25.799803017122418
-25.673708246154785
-23.60355694985263
-23.321364225251518
-21.539322776725644
-21.402646665623564
-20.492515673817564
-18.68210499856671
-18.011668287775375
-16.68776472285825
-15.626104208678003
-13.165360687704915
-12.849730595829136
-12.213876865545366
-11.206499685986097
-9.6493297602835
-9.41164300015693
-8.095812452694524
-6.810619494614715
-5.5594765184283865
-5.356489131656004
-3.4288786278250414
-1.9089880708055598
-2.1457438197361203
0.40113046796017543
0.1562123845823431
2.4134485334096074
3.3090074522137765
4.080209772312313
5.1853128837897815
7.002715520468866
7.718621617786564
9.902729027392077
11.16419935960182
12.053826924074231
13.923727584593209
13.682061678057886
13.414912009810797
14.061934536199528
15.387426679599374
18.062975795643073
19.87076487967075
18.963264337059385
18.768412359771677
20.390161503246855
22.287970847608012
21.680562624946724
22.773266158977503
25.340462510846354
23.73775398050546
25.923954434905085
25.409387132136175
24.318993556632893
26.262735582276896
24.84691717416812
24.868464280999774
25.169941613701152
24.672572406506468
25.363962937257533
25.009939937310637
20.69119860299377
19.744171994231948
19.097805473322286
16.849471760634525
14.500356498831083
15.812121625288171
11.903549931729636
7.9696170181669626
5.565479281419798
3.073951646041759
-1.0482107530786309
-2.0137383855459814
-5.320516646677034
-7.84693381887162
-9.952345264062874
-12.678513657190177
-14.632148858496173
-16.24174459956205
-18.337925676300713
-19.059886946389163
-22.04072911178602
-22.402019114838858
-23.828879679751612
-25.936560024140864
-26.604243169677066
-27.917619502962957
-29.537521760773558
-30.612106758829114
-31.813099638168687
-31.709776415865555
-31.447663063461718
-31.099946286677312
-32.03816050343901
-32.89670941850473
-32.48466948318839
-32.03078430532585
-32.45374168161927
-32.32830704818596
-31.564380523963127
-31.157653049758903
-30.1104923398393
-29.899280966752425
-29.07730894806038
-27.677879676305864
-27.40354209048381
-26.49973741379956
-25.168978716910857
-24.228162686475144
-22.711798035168414
-22.00404634198401
-20.336243907111967
-19.6181496779964
-18.116054499730804
-17.236678046568105
-13.747277134129703
-12.935751559374143
-11.388277842846298
-8.069436048745345
-7.095029235695749
-4.850283863941122
-4.021002178830384
-3.1392122595878944
0.16594502120476168
1.3979008399643735
1.257001834775799
2.4135848910541076
4.552498804608715
6.440553452641682
8.181960164073567
9.400297019055165
10.32699509166039
11.299712807304964
12.529790029312963
12.626128491303147
16.463109287933698
16.1444778677018
16.66815963075325
19.112187030492688
20.143587268671684
21.405240181924555
21.988904659747178
22.909103987404833
23.27172696565159
23.642973522787134
26.000610084250855
26.14677891062222
24.43580650912044
24.512158910687646
24.25221452138939
26.64773145284874
29.145466661307132
29.616579439695016
27.574638096827297
30.997914214432377
29.946035574257653
30.817713211066554
30.429664650322003
32.04938911199528
32.25041950999698
28.90098100893186
32.79907379796938
32.35223659942166
31.172237792173437
30.35894000781733
32.089152369443624
30.023913923807694
31.00571517645367
29.30295374927507
28.864571310309426
26.39767103516791
25.968213255745336
24.601873453184954
22.37663053588005
21.150502293491737
20.581281865290556
19.96723941870497
16.72120343126952
16.33857933987649
12.965272573514873
12.03803003436718
8.472011908230517
3.945656893440327
0.7669105651422795
-1.8045091882924966
-6.555737923547117
-8.667896202653056
-11.704790714775438
-13.853332730116797
-15.32994824438389
-17.156107143543366
-18.450203287045476
-20.068271706324776
-21.803015881770644
-21.368765770829906
-21.631747443544555
-24.61582216450341
-26.985176293083263
-28.255550463436116
-28.51029485101852
-28.000919214671924
-29.300236462230554
-28.279862419123912
-27.47119974213277
-26.952372996640094
-27.5779083374579
-24.83221187665413
-23.020332348484043
-21.993007048025632
-21.3025949397015
-19.10540637676502
-17.44665309208303
-16.0120837297615
-14.096291815304639
-11.730496237071051
-9.224267210550245
-7.918107068894411
-6.7243700468675875
-4.447793683467714
-2.832776766622666
-0.8290371943922318
1.824097287320526
1.0885065619228156
3.1291540625982246
4.110129032406045
6.223205679164238
7.0570561806628245
8.872445515751382
9.335676899274986
11.872435311492787
12.750399952643566
13.737783274741602
13.838450557440343
15.562702330635803
17.31463473269183
19.775424029680018
21.617896367207905
21.47293525390113
23.4902545696044
23.86899916735375
24.55992760031177
23.37697574765574
24.353472570704433
25.419556750443345
24.725761822856676
24.317456272173878
27.057982766746505
28.414508167446048
29.740410812738936
30.530144454988978
30.8793929161975
29.80041688542943
28.819614185228282
28.758714290451827
30.378934917205882
28.853920301150414
27.736966496757244
29.227704969152388
28.23057576317375
28.768888082133046
26.89480602689308
26.537474228997166
27.46745241122596
24.705468388234337
22.737165621068876
23.6893393856776
23.31105394542793
19.532132256004505
19.03825964650145
18.60948112590294
15.453803252217915
14.87263235846415
11.174481244381148
9.060366236469193
5.875976762317367
2.9032274248982985
-1.7357792647664205
-3.055938735319904
-5.435614691773396
-8.840115205211953
-11.967113603052603
-13.541332254064676
-16.424640253944805
-18.071618506582002
-18.94643422360573
-21.036286998117205
-21.812619818910974
-23.361293986235097
-26.302331947434297
-26.07419789083363
-29.23026580168784
-29.79193124565558
-29.66138858077677
-31.145667761740775
-30.242409863573112
-29.436181871670772
-30.324377634068405
-30.222213117247534
-30.092039767319076
-30.149909719155765
-30.696552832856515
-29.92041707160174
-28.435730014384664
-26.81434645147801
-25.20675565338255
-24.800367170266718
-23.43112070555415
-22.218916700727533
-20.45672541259076
-20.25495180585458
-18.095490673139494
-16.684436081573992
-13.662124495119293
-12.412787378849265
-10.903221864046591
-9.211402505532202
-6.490655169459614
-5.977635383640273
-3.9196398969455863
-1.4754101211216522
-0.8627091951276501
1.9583705337324258
2.781892179250067
4.201980327797518
4.576267223699865
6.678417942928117
6.646935514542481
8.917248099173246
11.339451921928147
11.413006327203702
13.499726015454865
15.652723574855465
16.20766857142259
15.755524806501974
18.61019477895617
18.371768366534788
18.74273316162386
21.020761384726235
18.09719352937493
22.30869491212458
22.161466797023976
22.777002344309004
21.549911403392446
23.94982233346169
25.967653471926994
25.244921486952098
24.978271880573125
27.19586824797173
25.087759657469373
24.648257136199746
25.133358424100326
21.835034439940845
22.32876117543316
21.874525009205648
23.00120764163698
22.0447248469486
20.136690459935345
21.54390772469438
20.299688111724382
18.28879089029041
14.91519430737254
13.667427718223177
8.896756354574016
4.8780252321818125
2.042127986572161
-3.047272678440198
-3.8834576758438777
-6.9148349040553425
-9.513206591852827
-12.150855845039164
-14.24980314540147
-16.61916517069933
-18.774852619217608
-19.606034481439792
-22.126045685936745
-22.402556254394963
-25.965560207349252
-27.238309696784064
-29.20495007951104
-29.385058037049863
-29.521899619739365
-30.877701028594682
-31.083876304442878
-29.684326724101542
-31.90174212049717
-32.70411931789497
-32.058527693633444
-30.318902792947046
-29.49666095827721
-29.20969386696321
-28.542672905186627
-27.99293089998871
-27.070331069033983
-25.331599911579698
-24.090015632473136
-23.37501014236014
-22.461331994455055
-20.46109184565281
-18.827379813235392
-18.54215101665569
-17.09997473564356
-14.741360597638698
-13.256432523534972
-11.055426671775727
-9.829224810972143
-7.961406022608602
-5.215019141347561
-2.8230705327737877
-2.5859399049668825
-1.1739889915681863
0.29262935153027486
3.2979327918078063
3.054945729793401
5.407984912158014
7.628828117891415
7.137950032880571
7.902169246188956
10.622364998518938
11.293445406654305
13.531526849188358
15.623627093759753
16.48583354363972
17.324980972595032
17.698461207776695
20.33221838631322
19.224215850743864
21.11201429070323
22.28030589347268
21.482442222781806
22.706986010919174
23.445425473329582
24.058049970890647
24.998529376059487
26.41577436875569
26.416462402420585
27.784694065853074
26.84621238346277
26.08475727558797
26.890205550425772
27.923257335086777
27.4173387188374
25.62947972896788
25.51972745327268
24.865027557453363
22.52765421395951
21.65665385068739
20.94835057836875
19.25750615977643
18.080727842127754
17.86343679667534
15.3300283290585
13.454497124227261
10.982031431127545
7.573290728398757
4.040888910897652
0.7477850818249401
-3.0844388960798255
-4.248772553808858
-6.886809574863688
-9.91685132862369
-12.317737515251808
-13.91942916345112
-15.724662703137367
-18.121217344142305
-19.052050039827847
-22.282840171518227
-23.473019124192476
-24.422947220064806
-26.432158721177966
-28.087310159270015
-27.23832114004668
-28.24208030200291
-27.146778716968598
-27.677888447774773
-27.684467708391143
-27.5722968905293
-24.603570575096718
-24.962113412896116
-24.473636544776472
-23.920339000839203
-24.032528538068345
-21.24183566743578
-21.326742775905213
-19.919800902643743
-18.351120384284147
-17.575344224997743
-16.494497316024688
-14.532253603179877
-13.279806921324543
-11.32867728939973
-9.77458147198029
-8.79285498275834
-6.825044397880118
-6.875413361944831
-4.178271179037077
-2.36206238636995
-1.664953223010241
-0.05459660685360127
1.3168508892097315
3.6408422513083645
3.508231532679323
5.295619467550397
5.646848761800795
7.722044745185001
9.57882632512495
8.48323590583762
11.675390509826732
10.805768951438145
12.45275222508669
11.882678686890813
12.218968188423625
14.663189598412014
17.14469684668918
17.271101646400517
20.154883005899375
18.98998107693915
19.951873807609157
21.447112665663063
21.906800002322463
21.62865980773151
23.171670678012532
24.463235449385685
26.951897704559816
23.873590380770903
24.622131737288406
26.03531738872979
26.056568131891368
27.722258495902356
26.94252009634347
27.508811643582803
28.351313116763077
26.84887490588285
28.08919004442626
26.877768845609303
27.78388800167962
26.550471799448495
26.988951723984417
25.570517869452647
25.824297919869537
22.390272747811437
19.318088455122645
16.440070337196644
18.412047490965406
16.121515784589903
15.564640406135043
14.982070177007804
12.124214154044125
10.25635399026837
7.107328534392966
7.032984676102672
2.5900215154301263
0.03412722022990417
-3.472882102789807
-5.400440071915837
-7.86953959114019
-9.333563171808535
-12.893737647867736
-14.698965208780619
-16.148126160121375
-18.699015684715764
-18.1750519571466
-21.063571900513054
-19.27507216272968
-25.42414886049953
-26.076885212825186
-28.19565500411773
-26.68849369263779
-27.993140647613714
-30.400371714381993
-31.328570904530046
-30.97069134388929
-31.704629736623946
-31.203444128181623
-31.98709691648808
-33.105350596725465
-32.70823339823538
-31.750573818870656
-31.39555834839619
-32.862904865449515
-31.479935547160363
-32.12141096749412
-32.813247103376476
-31.457362217373326
-32.32792520809722
-31.29856396020064
-32.055300262513924
-30.75936331174192
-32.778719449947445
-30.736564261774767
-31.005147552100127
-32.43879195013848
-31.111454027249575
-30.0448825357621
-31.605099180250605
-28.968468760311904
-29.676422629815693
-28.631873866916226
-30.044542164968867
-27.9142779935412
-26.390738521041055
-25.682363927844108
-25.804976880484087
-24.305390306526974
-24.306759828772535
-22.67042510848895
-20.489391609302853
-19.695680769500242
-18.647987394029204
-17.02148591935649
-14.730840357325048
-12.045791435766043
-9.909906460253168
-8.48322875934931
-5.6732270534489295
-4.5393996353999135
-3.2357131927163554
-2.7035810832626286
-1.0662119223159936
0.8743112990157347
2.4106238478921687
4.49115062784168
5.008366547007991
6.32956492610526
6.939858055986098
8.068167842857006
9.728791136407265
10.099333028679592
12.948817435126598
12.869806836136783
15.105329035479016
16.3042405723641
15.520808137462984
16.881803303984565
19.576056092456493
21.205790704829052
21.176677428875422
20.53302340359906
23.02153134015806
22.802129347524424
25.81464654026856
25.301991613981013
24.862406239338355
27.22888023296694
26.02531671647203
25.35010229625616
28.407650502793853
27.76633019072334
27.65491388082965
29.074225308968344
30.148710405790563
28.657510020771777
28.93039874174844
27.7454863012366
27.077284726386253
26.142289485714468
25.82133005071547
25.27397429623756
26.115044685558942
26.044666523246264
25.556582414337008
23.492577060425962
22.34268493526143
19.968666012391637
19.21910506657451
17.550116169741205
15.08645023098249
16.481378784392902
15.19755687264557
13.367144934834162
10.967012217866806
8.288237335297744
4.762585528505764
-0.5008738243773366
-3.856140504995344
-5.952012816911312
-9.345754342394414
-11.67809232416303
-14.01480932428777
-14.609123197678255
-17.58445554255892
-19.771126615543483
-20.67291112273165
-21.738546844004905
-22.79964164289977
-24.87228754844615
-27.642825961755637
-27.718454091624736
-29.249280258881512
-29.005554348951254
-28.85827305561319
-28.058203951450345
-28.78382966400144
-27.583338453286732
-28.020851863881195
-26.365795954634013
-26.081129543788066
-24.520789057877415
-22.76872069312059
-22.447382841317026
-21.393910169055584
-20.486845140263135
-18.608148671295993
-17.671700679381345
-15.506066594724519
-13.61132854977441
-12.65189279489401
-9.342334854360386
-7.680380460181888
-6.629343657815225
-4.1650588149078365
-2.481282412093756
0.2667588344089758
0.9190154034167963
3.4285723268069277
4.795339579772718
6.403397156212564
8.445683390558546
9.295990295654274
9.445952713282677
11.521070019370233
15.602957410689303
14.356501154917146
16.64694969905589
17.70759186843405
18.44462255716959
19.356801810957897
21.803443475025166
21.418059148151634
22.765459959195493
24.922618253870052
23.04005029273809
25.212055027844187
25.788846040479285
25.890202511814188
24.917884494030247
24.328608926281436
24.481361753525547
23.253220587305556
21.73922144232532
19.670456294147638
19.289763206677936
17.26035219243676
16.351388663045622
16.105565210813385
13.297697815252327
12.853300561373697
9.620369172226255
7.243255479950732
2.9114838249312505
0.6115352819611216
-2.134746260989912
-5.651639457179764
-7.117224593985748
-9.031347176000287
-11.38471577789088
-12.584158960695653
-14.286374625599692
-16.420883939261174
-17.328798596519565
-18.96744216781126
-19.99538296709833
-20.029400253044997
-24.46349853432982
-26.219960663056202
-25.886336999220745
-26.644874989273394
-27.517683007192485
-26.478241168597606
-26.40413075143714
-26.118129142912103
-26.938497155788024
-26.979329099313944
-24.80975087885611
-25.628789832439875
-24.263085893071437
-23.37977857849921
-23.571031948531445
-23.969076696192268
-22.514235737905288
-19.97155981178339
-20.99263874914615
-19.638047406641984
-17.964601830241175
-16.924359507642396
-16.010175172906955
-14.21782439175142
-12.336214006189003
-9.609208027383046
-7.7687752731564395
-4.789170631448541
-2.864369020242703
-1.5656148370628227
0.3998610626978916
1.0226581260774004
2.242281980703829
6.271625032984781
6.749458813210009
9.614987658106175
10.469627567759453
11.447156126045252
13.804506129491742
14.177367102301895
16.117714254470194
16.93639807780238
20.500331242091043
20.0801378675305
20.399732895217145
23.554075228854455
24.239075003821725
26.147713068405288
26.448317226449554
25.7603395823971
26.801899639884528
28.26812130225899
26.133290046387486
28.68044356141504
26.5336796964785
26.06122187727111
26.242230774777745
27.565752321775413
26.43404798090307
25.838111652018615
25.2282364600962
24.585378924647653
23.620832712765406
19.686365612205886
19.269848895095237
17.315919898924925
14.372231810356677
14.39156097253104
11.125036348459705
10.875628497285438
6.521772419432601
4.733419866035614
2.8593334733944404
-0.569967250720122
-3.2608058321894715
-5.398312204619989
-8.081951487438294
-10.852976417696503
-12.817280435275707
-15.429448508451719
-17.17379513649502
-19.410678620521495
-20.702110594801603
-22.20100424003956
-25.461951999983924
-26.053051671151493
-26.390962539289816
-26.619543452746203
-25.58775720819697
-25.099037238887053
-23.923567186703963
-24.60231426851323
-23.677745825631483
-21.705181687425192
-19.664191613137692
-19.210146579192827
-17.963294486870204
-15.65486640614641
-14.636811576160241
-11.573249820388153
-9.741076269835533
-6.757965402521977
-4.990994158316642
-2.754984406889733
-1.459350557098906
0.32680128339076875
2.4462463448910294
4.695511348293911
5.805162767450407
6.144141307084957
9.534796734265127
8.192180477851522
11.33656541275503
10.677226707044067
12.3472040404565
14.16817237632813
14.657867827471643
16.21316530707263
17.71932170450739
19.112292031764312
19.33178933934485
20.065560857598744
22.492462703091928
24.402324897747995
25.521399287597447
24.377472615939393
24.85228419369165
27.666601421137408
27.024903433326603
27.281340295680167
27.074988496627892
27.646420828269655
27.14712545765844
27.136070482833034
25.966014082447533
23.293491882069603
22.95040515550771
20.906349834160505
19.451099682907792
16.933565120722083
13.424213463127138
10.808646300576696
9.067008122025626
9.223531855325287
5.643914433092621
3.0558622302746046
-1.2413620915879813
-3.33320830708909
-7.419505568814166
-9.52994311635675
-11.559956163796814
-13.773837288026535
-15.109802065059748
-18.35084883414106
-20.526625579555535
-21.983425652205916
-23.77605066034393
-24.866997919482404
